timestamp,localized,ambient_long,infrared_long,red_long,ambient_short,infrared_short,red_short
1691724027528,2023-08-10T20:20:27.528(UTC-07:00),-1945646,5549674,4150043,-2332158,5281929,5296711
1691724027564,2023-08-10T20:20:27.564(UTC-07:00),-1947688,,4154596,-2334228,,5281652
1691724027595,2023-08-10T20:20:27.595(UTC-07:00),,5548190,4149669,,5283448,5283174
1691724027640,2023-08-10T20:20:27.640(UTC-07:00),-1954539,5550249,,-2335509,5284184,
1691724027670,2023-08-10T20:20:27.670(UTC-07:00),-1943933,5555387,4156488,-2322753,5270875,5283908
1691724027715,2023-08-10T20:20:27.715(UTC-07:00),-1947617,,4137002,-2326266,,5270597
1691724027752,2023-08-10T20:20:27.752(UTC-07:00),,5548344,4147991,,5273833,5273558
1691724027782,2023-08-10T20:20:27.782(UTC-07:00),-1951533,5556527,,-2325854,5272872,
1691724027819,2023-08-10T20:20:27.819(UTC-07:00),-1949874,5555117,4141641,-2323807,5270273,5272595
1691724027857,2023-08-10T20:20:27.857(UTC-07:00),-1944975,,4133305,-2320318,,5269997
1691724027902,2023-08-10T20:20:27.902(UTC-07:00),,5553628,4135335,,5266232,5265955
1691724027932,2023-08-10T20:20:27.932(UTC-07:00),-1950773,5554687,,-2321683,5267045,
1691724027977,2023-08-10T20:20:27.977(UTC-07:00),-1951322,5557326,4144073,-2321170,5265976,5266766
1691724028015,2023-08-10T20:20:28.015(UTC-07:00),-1948638,,4134614,-2318788,,5265698
1691724028053,2023-08-10T20:20:28.053(UTC-07:00),,5563688,4144146,,5263039,5262758
1691724028089,2023-08-10T20:20:28.089(UTC-07:00),-1945756,5564856,,-2311394,5255084,
1691724028120,2023-08-10T20:20:28.120(UTC-07:00),-1946160,5557562,4141732,-2312376,5255505,5254802
1691724028157,2023-08-10T20:20:28.157(UTC-07:00),-1946534,,4136795,-2320450,,5255225
1691724028195,2023-08-10T20:20:28.195(UTC-07:00),,5565646,4126348,,5263023,5262752
1691724028232,2023-08-10T20:20:28.232(UTC-07:00),-1948616,5564182,,-2353200,5295237,
1691724028263,2023-08-10T20:20:28.263(UTC-07:00),-1957513,5562629,4146004,-2365674,5307194,5294977
1691724028299,2023-08-10T20:20:28.299(UTC-07:00),-1964784,,4151079,-2372845,,5306934
1691724028330,2023-08-10T20:20:28.330(UTC-07:00),,5563531,4156332,,5313847,5313589
1691724028375,2023-08-10T20:20:28.375(UTC-07:00),-1962495,5558710,,-2375278,5315767,
1691724028412,2023-08-10T20:20:28.412(UTC-07:00),-1960623,5557815,4162281,-2370408,5310383,5315510
1691724028443,2023-08-10T20:20:28.443(UTC-07:00),-1965385,,4157567,-2361251,,5310121
1691724028487,2023-08-10T20:20:28.487(UTC-07:00),,5550624,4146753,,5300705,5300446
1691724028518,2023-08-10T20:20:28.518(UTC-07:00),-1959291,5557395,,-2362489,5301424,
1691724028554,2023-08-10T20:20:28.554(UTC-07:00),-1960918,5555703,4153540,-2353187,5291595,5301161
1691724028585,2023-08-10T20:20:28.585(UTC-07:00),-1958398,,4149416,-2346808,,5291331
1691724028622,2023-08-10T20:20:28.622(UTC-07:00),,5549483,4145106,,5284688,5284421
1691724028653,2023-08-10T20:20:28.653(UTC-07:00),-1950234,5538213,,-2340115,5277461,
1691724028690,2023-08-10T20:20:28.690(UTC-07:00),-1960566,5553515,4135368,-2345953,5282765,5277193
1691724028727,2023-08-10T20:20:28.727(UTC-07:00),-1955223,,4153415,-2326598,,5282494
1691724028758,2023-08-10T20:20:28.758(UTC-07:00),,5546511,4118362,,5262868,5262594
1691724028794,2023-08-10T20:20:28.794(UTC-07:00),-1953521,5535816,,-2325937,5261661,
1691724028833,2023-08-10T20:20:28.833(UTC-07:00),-1965017,5536971,4120393,-2328256,5263437,5261388
1691724028892,2023-08-10T20:20:28.892(UTC-07:00),-1961103,,4122341,-2321273,,5263164
1691724028923,2023-08-10T20:20:28.923(UTC-07:00),,5545291,4124766,,5255908,5255632
1691724028997,2023-08-10T20:20:28.997(UTC-07:00),-1952132,5545233,,-2316367,5250452,
1691724029034,2023-08-10T20:20:29.034(UTC-07:00),-1958381,5556475,4125742,-2322987,5256526,5250178
1691724029072,2023-08-10T20:20:29.072(UTC-07:00),-1956775,,4137520,-2316089,,5256247
1691724029125,2023-08-10T20:20:29.125(UTC-07:00),,5543336,4101263,,5249074,5248807
1691724029169,2023-08-10T20:20:29.169(UTC-07:00),-1963132,5541466,,-2347751,5280208,
1691724029208,2023-08-10T20:20:29.208(UTC-07:00),-1974284,5539101,4125631,-2371144,5303087,5279948
1691724029252,2023-08-10T20:20:29.252(UTC-07:00),-1959642,,4146322,-2362713,,5302829
1691724029283,2023-08-10T20:20:29.283(UTC-07:00),,5521482,4136562,,5294143,5293891
1691724029319,2023-08-10T20:20:29.319(UTC-07:00),-1969573,5529061,,-2370321,5301246,
1691724029350,2023-08-10T20:20:29.350(UTC-07:00),-1964609,5521837,4142521,-2358172,5288578,5300984
1691724029387,2023-08-10T20:20:29.387(UTC-07:00),-1961346,,4137402,-2356929,,5288320
1691724029425,2023-08-10T20:20:29.425(UTC-07:00),,5514074,4136563,,5286821,5286565
1691724029462,2023-08-10T20:20:29.462(UTC-07:00),-1964856,5525747,,-2360048,5289426,
1691724029499,2023-08-10T20:20:29.499(UTC-07:00),-1959354,5522745,4142373,-2352655,5281517,5289168
1691724029538,2023-08-10T20:20:29.538(UTC-07:00),-1959614,,4130566,-2342318,,5281256
1691724029575,2023-08-10T20:20:29.575(UTC-07:00),,5511319,4124501,,5270655,5270391
1691724029605,2023-08-10T20:20:29.605(UTC-07:00),-1966098,5525374,,-2346373,5274183,
1691724029642,2023-08-10T20:20:29.642(UTC-07:00),-1965712,5510830,4131293,-2341997,5269283,5273919
1691724029673,2023-08-10T20:20:29.673(UTC-07:00),-1964445,,4128183,-2332027,,5269016
1691724029709,2023-08-10T20:20:29.709(UTC-07:00),,5513467,4124596,,5258779,5258507
1691724029740,2023-08-10T20:20:29.740(UTC-07:00),-1951350,5500758,,-2309570,5235776,
1691724029777,2023-08-10T20:20:29.777(UTC-07:00),-1950580,5484191,4112506,-2293503,5219153,5235497
1691724029808,2023-08-10T20:20:29.808(UTC-07:00),-1959945,,4097783,-2293184,,5218872
1691724029844,2023-08-10T20:20:29.844(UTC-07:00),,5485793,4090736,,5218272,5217988
1691724029875,2023-08-10T20:20:29.875(UTC-07:00),-1949999,5487192,,-2281225,5205748,
1691724029912,2023-08-10T20:20:29.912(UTC-07:00),-1945452,5499621,4085225,-2284634,5208592,5205465
1691724029943,2023-08-10T20:20:29.943(UTC-07:00),-1943839,,4093471,-2281388,,5208309
1691724029979,2023-08-10T20:20:29.979(UTC-07:00),,5485729,4077698,,5204781,5204505
1691724030010,2023-08-10T20:20:30.010(UTC-07:00),-1962108,5500357,,-2327891,5250743,
1691724030048,2023-08-10T20:20:30.048(UTC-07:00),-1966766,5489953,4106234,-2344616,5266945,5250480
1691724030084,2023-08-10T20:20:30.084(UTC-07:00),-1963057,,4104878,-2361771,,5266688
1691724030115,2023-08-10T20:20:30.115(UTC-07:00),,5491944,4121884,,5283591,5283340
1691724030159,2023-08-10T20:20:30.159(UTC-07:00),-1970275,5486094,,-2370078,5291397,
1691724030190,2023-08-10T20:20:30.190(UTC-07:00),-1975467,5485516,4123887,-2371033,5291854,5291147
1691724030227,2023-08-10T20:20:30.227(UTC-07:00),-1975914,,4115530,-2376622,,5291607
1691724030258,2023-08-10T20:20:30.258(UTC-07:00),,5495172,4128320,,5296948,5296702
1691724030294,2023-08-10T20:20:30.294(UTC-07:00),-1978730,5500424,,-2380246,5300080,
1691724030325,2023-08-10T20:20:30.325(UTC-07:00),-1969748,5497024,4131648,-2368301,5287638,5299832
1691724030362,2023-08-10T20:20:30.362(UTC-07:00),-1970891,,4125915,-2364743,,5287386
1691724030393,2023-08-10T20:20:30.393(UTC-07:00),,5497539,4124726,,5283578,5283327
1691724030429,2023-08-10T20:20:30.429(UTC-07:00),-1969138,5501166,,-2364412,5282746,
1691724030460,2023-08-10T20:20:30.460(UTC-07:00),-1969919,5507129,4128338,-2355518,5273348,5282495
1691724030497,2023-08-10T20:20:30.497(UTC-07:00),-1971080,,4122099,-2363289,,5273094
1691724030527,2023-08-10T20:20:30.527(UTC-07:00),,5518563,4132210,,5280614,5280358
1691724030572,2023-08-10T20:20:30.572(UTC-07:00),-1964341,5510225,,-2345920,5262733,
1691724030602,2023-08-10T20:20:30.602(UTC-07:00),-1969640,5515510,4120581,-2343659,5259957,5262476
1691724030639,2023-08-10T20:20:30.639(UTC-07:00),-1960606,,4119917,-2335634,,5259698
1691724030670,2023-08-10T20:20:30.670(UTC-07:00),,5509782,4118032,,5251413,5251156
1691724030707,2023-08-10T20:20:30.707(UTC-07:00),-1964992,5519484,,-2343460,5258726,
1691724030737,2023-08-10T20:20:30.737(UTC-07:00),-1970346,5528166,4122657,-2344673,5259423,5258468
1691724030774,2023-08-10T20:20:30.774(UTC-07:00),-1970022,,4113701,-2350069,,5259165
1691724030805,2023-08-10T20:20:30.805(UTC-07:00),,5505216,4108203,,5264310,5264061
1691724030842,2023-08-10T20:20:30.842(UTC-07:00),-1981300,5503363,,-2378425,5292173,
1691724030873,2023-08-10T20:20:30.873(UTC-07:00),-1981338,5485038,4128651,-2390685,5303948,5291928
1691724030909,2023-08-10T20:20:30.909(UTC-07:00),-1983909,,4130070,-2388343,,5303709
1691724030940,2023-08-10T20:20:30.940(UTC-07:00),,5476446,4124873,,5301128,5300887
1691724030984,2023-08-10T20:20:30.984(UTC-07:00),-1978344,5481539,,-2395922,5308226,
1691724031015,2023-08-10T20:20:31.015(UTC-07:00),-1972503,5468313,4136185,-2374394,5286213,5307983
1691724031052,2023-08-10T20:20:31.052(UTC-07:00),-1975083,,4105694,-2373668,,5285970
1691724031090,2023-08-10T20:20:31.090(UTC-07:00),,5473561,4111188,,5284999,5284751
1691724031127,2023-08-10T20:20:31.127(UTC-07:00),-1981211,5476716,,-2374159,5284997,
1691724031158,2023-08-10T20:20:31.158(UTC-07:00),-1981676,5473299,4113307,-2374057,5284407,5284753
1691724031194,2023-08-10T20:20:31.194(UTC-07:00),-1983229,,4118396,-2381812,,5284160
1691724031225,2023-08-10T20:20:31.225(UTC-07:00),,5477490,4127011,,5291672,5291427
1691724031262,2023-08-10T20:20:31.262(UTC-07:00),-1973731,5470446,,-2365907,5275277,
1691724031293,2023-08-10T20:20:31.293(UTC-07:00),-1980119,5491177,4117532,-2368768,5277645,5275031
1691724031329,2023-08-10T20:20:31.329(UTC-07:00),-1981285,,4119173,-2364659,,5277394
1691724031360,2023-08-10T20:20:31.360(UTC-07:00),,5476800,4112229,,5273036,5272786
1691724031397,2023-08-10T20:20:31.397(UTC-07:00),-1975827,5481301,,-2356657,5264534,
1691724031427,2023-08-10T20:20:31.427(UTC-07:00),-1975501,5490070,4101773,-2361917,5269292,5264282
1691724031464,2023-08-10T20:20:31.464(UTC-07:00),-1968979,,4121748,-2346054,,5269040
1691724031495,2023-08-10T20:20:31.495(UTC-07:00),,5472825,4098703,,5252926,5252674
1691724031533,2023-08-10T20:20:31.533(UTC-07:00),-1968502,5486838,,-2346656,5253024,
1691724031563,2023-08-10T20:20:31.563(UTC-07:00),-1975771,5498205,4102048,-2354517,5260382,5252772
1691724031600,2023-08-10T20:20:31.600(UTC-07:00),-1983013,,4109302,-2367151,,5260135
1691724031630,2023-08-10T20:20:31.630(UTC-07:00),,5519186,4124878,,5272523,5272277
1691724031667,2023-08-10T20:20:31.667(UTC-07:00),-1978013,5512086,,-2366918,5271800,
1691724031698,2023-08-10T20:20:31.698(UTC-07:00),-1983389,5498799,4108574,-2388611,5293017,5271558
1691724031742,2023-08-10T20:20:31.742(UTC-07:00),-1991552,,4105338,-2412078,,5292787
1691724031772,2023-08-10T20:20:31.772(UTC-07:00),,5498074,4128882,,5316026,5315796
1691724031810,2023-08-10T20:20:31.810(UTC-07:00),-1993312,5493980,,-2423828,5327322,
1691724031840,2023-08-10T20:20:31.840(UTC-07:00),-1997781,5484957,4128782,-2423412,5326461,5327098
1691724031877,2023-08-10T20:20:31.877(UTC-07:00),-2001832,,4127903,-2427059,,5326239
1691724031908,2023-08-10T20:20:31.908(UTC-07:00),,5490596,4134273,,5329664,5329440
1691724031944,2023-08-10T20:20:31.944(UTC-07:00),-2000649,5485294,,-2423111,5325271,
1691724031975,2023-08-10T20:20:31.975(UTC-07:00),-1992259,5491186,4130692,-2421522,5323235,5325048
1691724032012,2023-08-10T20:20:32.012(UTC-07:00),-1988922,,4136024,-2414900,,5323011
1691724032043,2023-08-10T20:20:32.043(UTC-07:00),,5486845,4131725,,5316162,5315937
1691724032079,2023-08-10T20:20:32.079(UTC-07:00),-1988336,5497447,,-2420758,5321573,
1691724032110,2023-08-10T20:20:32.110(UTC-07:00),-1998243,5504197,4130470,-2427819,5328188,5321350
1691724032148,2023-08-10T20:20:32.148(UTC-07:00),-1994845,,4147476,-2417493,,5327962
1691724032178,2023-08-10T20:20:32.178(UTC-07:00),,5498937,4122738,,5317412,5317183
1691724032214,2023-08-10T20:20:32.214(UTC-07:00),-1999220,5504490,,-2410312,5309773,
1691724032253,2023-08-10T20:20:32.253(UTC-07:00),-1982300,5479221,4134559,-2384516,5283509,5309540
1691724032290,2023-08-10T20:20:32.290(UTC-07:00),-1984951,,4112859,-2385859,,5283274
1691724032320,2023-08-10T20:20:32.320(UTC-07:00),,5503446,4125407,,5284383,5284145
1691724032357,2023-08-10T20:20:32.357(UTC-07:00),-1981343,5511915,,-2377083,5275130,
1691724032388,2023-08-10T20:20:32.388(UTC-07:00),-1973176,5505749,4123607,-2359142,5256705,5274889
1691724032425,2023-08-10T20:20:32.425(UTC-07:00),-1975453,,4110272,-2355437,,5256462
1691724032463,2023-08-10T20:20:32.463(UTC-07:00),,5508165,4116448,,5252512,5252264
1691724032499,2023-08-10T20:20:32.499(UTC-07:00),-1986555,5519750,,-2357289,5253871,
1691724032530,2023-08-10T20:20:32.530(UTC-07:00),-1970738,5518745,4118002,-2344381,5240467,5253623
1691724032567,2023-08-10T20:20:32.567(UTC-07:00),-1979789,,4114092,-2346639,,5240215
1691724032597,2023-08-10T20:20:32.597(UTC-07:00),,5528369,4115103,,5242224,5241973
1691724032634,2023-08-10T20:20:32.634(UTC-07:00),-1973310,5528040,,-2342008,5237092,
1691724032665,2023-08-10T20:20:32.665(UTC-07:00),-1984793,5521371,4092843,-2379795,5274398,5236846
1691724032703,2023-08-10T20:20:32.703(UTC-07:00),-1991906,,4107292,-2400932,,5274166
1691724032740,2023-08-10T20:20:32.740(UTC-07:00),,5509711,4121181,,5295074,5294849
1691724032784,2023-08-10T20:20:32.784(UTC-07:00),-2003983,5511966,,-2413202,5306895,
1691724032815,2023-08-10T20:20:32.815(UTC-07:00),-1988829,5501490,4137534,-2408563,5301807,5306671
1691724032860,2023-08-10T20:20:32.860(UTC-07:00),-1994565,,4119346,-2414519,,5301585
1691724032897,2023-08-10T20:20:32.897(UTC-07:00),,5508563,4128834,,5307319,5307094
1691724032928,2023-08-10T20:20:32.928(UTC-07:00),-1998111,5506017,,-2415233,5307585,
1691724032972,2023-08-10T20:20:32.972(UTC-07:00),-1989761,5489483,4138736,-2400148,5292049,5307360
1691724033009,2023-08-10T20:20:33.009(UTC-07:00),-1992332,,4117231,-2400244,,5291821
1691724033047,2023-08-10T20:20:33.047(UTC-07:00),,5495672,4111861,,5291689,5291462
1691724033092,2023-08-10T20:20:33.092(UTC-07:00),-1995203,5494002,,-2404511,5295502,
1691724033123,2023-08-10T20:20:33.123(UTC-07:00),-1984609,5503194,4129053,-2396113,5286648,5295274
1691724033182,2023-08-10T20:20:33.182(UTC-07:00),-2001190,,4115925,-2404002,,5286420
1691724033212,2023-08-10T20:20:33.212(UTC-07:00),,5500173,4119205,,5294082,5293853
1691724033250,2023-08-10T20:20:33.250(UTC-07:00),-1990057,5509050,,-2402222,5291846,
1691724033287,2023-08-10T20:20:33.287(UTC-07:00),-2000991,5511018,4130716,-2400535,5289707,5291621
1691724033318,2023-08-10T20:20:33.318(UTC-07:00),-2002499,,4116505,-2407627,,5289483
1691724033354,2023-08-10T20:20:33.354(UTC-07:00),,5519687,4129121,,5296350,5296121
1691724033414,2023-08-10T20:20:33.414(UTC-07:00),-2000359,5505725,,-2392739,5281006,
1691724033445,2023-08-10T20:20:33.445(UTC-07:00),-1998634,5524929,4113558,-2392873,5280680,5280774
1691724033482,2023-08-10T20:20:33.482(UTC-07:00),-1993962,,4121435,-2383766,,5280450
1691724033520,2023-08-10T20:20:33.520(UTC-07:00),,5520602,4119517,,5271110,5270876
1691724033559,2023-08-10T20:20:33.559(UTC-07:00),-1987409,5515163,,-2368289,5255163,
1691724033603,2023-08-10T20:20:33.603(UTC-07:00),-1992784,5539515,4116162,-2376982,5263387,5254929
1691724033647,2023-08-10T20:20:33.647(UTC-07:00),-1986263,,4113013,-2372900,,5263150
1691724033685,2023-08-10T20:20:33.685(UTC-07:00),,5548808,4126054,,5258833,5258598
1691724033722,2023-08-10T20:20:33.722(UTC-07:00),-1992226,5559136,,-2405730,5291204,
1691724033760,2023-08-10T20:20:33.760(UTC-07:00),-2001064,5555981,4131880,-2440961,5326004,5290984
1691724033804,2023-08-10T20:20:33.804(UTC-07:00),-2005029,,4145170,-2462749,,5325799
1691724033842,2023-08-10T20:20:33.842(UTC-07:00),,5553708,4160093,,5347386,5347183
1691724033888,2023-08-10T20:20:33.888(UTC-07:00),-2009029,5552583,,-2464868,5349099,
1691724033933,2023-08-10T20:20:33.933(UTC-07:00),-2002673,5551944,4157982,-2469438,5353267,5348896
1691724033985,2023-08-10T20:20:33.985(UTC-07:00),-2001230,,4162258,-2458852,,5353065
1691724034016,2023-08-10T20:20:34.016(UTC-07:00),,5549102,4164866,,5342278,5342072
1691724034052,2023-08-10T20:20:34.052(UTC-07:00),-2006331,5549024,,-2457028,5340043,
1691724034105,2023-08-10T20:20:34.105(UTC-07:00),-2004699,5560517,4169489,-2453696,5336300,5339837
1691724034143,2023-08-10T20:20:34.143(UTC-07:00),-2000241,,4164170,-2446284,,5336092
1691724034194,2023-08-10T20:20:34.194(UTC-07:00),,5557625,4156266,,5328473,5328260
1691724034239,2023-08-10T20:20:34.239(UTC-07:00),-1998170,5543758,,-2435994,5317759,
1691724034293,2023-08-10T20:20:34.293(UTC-07:00),-2015570,5546995,4147517,-2446167,5327513,5317548
1691724034323,2023-08-10T20:20:34.323(UTC-07:00),-2001460,,4162353,-2433472,,5327301
1691724034367,2023-08-10T20:20:34.367(UTC-07:00),,5550455,4151169,,5314394,5314179
1691724034404,2023-08-10T20:20:34.404(UTC-07:00),-1997649,5558271,,-2427819,5308312,
1691724034435,2023-08-10T20:20:34.435(UTC-07:00),-1992614,5560502,4156017,-2415453,5295509,5308094
1691724034472,2023-08-10T20:20:34.472(UTC-07:00),-1983573,,4144136,-2395618,,5295288
1691724034518,2023-08-10T20:20:34.518(UTC-07:00),,5535656,4129704,,5275230,5275003
1691724034562,2023-08-10T20:20:34.562(UTC-07:00),-1996672,5539561,,-2399060,5278221,
1691724034600,2023-08-10T20:20:34.600(UTC-07:00),-1987855,5540898,4128738,-2390505,5269213,5277994
1691724034660,2023-08-10T20:20:34.660(UTC-07:00),-1993169,,4125875,-2386461,,5268987
1691724034697,2023-08-10T20:20:34.697(UTC-07:00),,5543751,4126654,,5264716,5264486
1691724034743,2023-08-10T20:20:34.743(UTC-07:00),-1991663,5553361,,-2385527,5264486,
1691724034787,2023-08-10T20:20:34.787(UTC-07:00),-1988961,5542960,4124032,-2375971,5254469,5264255
1691724034825,2023-08-10T20:20:34.825(UTC-07:00),-1997182,,4098592,-2417426,,5254242
1691724034862,2023-08-10T20:20:34.862(UTC-07:00),,5552362,4122463,,5295478,5295264
1691724034907,2023-08-10T20:20:34.907(UTC-07:00),-1997942,5533771,,-2435308,5312938,
1691724034967,2023-08-10T20:20:34.967(UTC-07:00),-2006338,5539826,4133717,-2459882,5337108,5312735
1691724034997,2023-08-10T20:20:34.997(UTC-07:00),-2013190,,4148551,-2463312,,5337507
1691724035043,2023-08-10T20:20:35.043(UTC-07:00),,5534500,4143290,,5340385,5339832
1691724035087,2023-08-10T20:20:35.087(UTC-07:00),-2012674,5532144,,-2465091,5341412,
1691724035132,2023-08-10T20:20:35.132(UTC-07:00),-2008975,5528286,4158621,-2452482,5327694,5340858
1691724035179,2023-08-10T20:20:35.179(UTC-07:00),-2012274,,4143671,-2461441,,5328090
1691724035208,2023-08-10T20:20:35.208(UTC-07:00),,5537233,4154489,,5335795,5335239
1691724035245,2023-08-10T20:20:35.245(UTC-07:00),-2008530,5534537,,-2448028,5322819,
1691724035290,2023-08-10T20:20:35.290(UTC-07:00),-2006479,5530768,4144103,-2436927,5311299,5322609
1691724035327,2023-08-10T20:20:35.327(UTC-07:00),-2011304,,4131269,-2435100,,5311054
1691724035373,2023-08-10T20:20:35.373(UTC-07:00),,5525697,4133807,,5308667,5308103
1691724035424,2023-08-10T20:20:35.424(UTC-07:00),-2004218,5532825,,-2430525,5303912,
1691724035455,2023-08-10T20:20:35.455(UTC-07:00),-1999373,5531732,4135691,-2419342,5291601,5303347
1691724035499,2023-08-10T20:20:35.499(UTC-07:00),-1995465,,4123504,-2413336,,5291972
1691724035530,2023-08-10T20:20:35.530(UTC-07:00),,5525959,4123774,,5285401,5284834
1691724035567,2023-08-10T20:20:35.567(UTC-07:00),-2000644,5541055,,-2414922,5286794,
1691724035628,2023-08-10T20:20:35.628(UTC-07:00),-1999162,5550486,4126745,-2416705,5287484,5286266
1691724035672,2023-08-10T20:20:35.672(UTC-07:00),-2009655,,4131198,-2423218,,5287267
1691724035710,2023-08-10T20:20:35.710(UTC-07:00),,5571450,4142429,,5293566,5293348
1691724035755,2023-08-10T20:20:35.755(UTC-07:00),-1998292,5563715,,-2425235,5295744,
1691724035807,2023-08-10T20:20:35.807(UTC-07:00),-2004485,5556831,4125663,-2459750,5329119,5295187
1691724035852,2023-08-10T20:20:35.852(UTC-07:00),-2011386,,4139112,-2476863,,5328924
1691724035897,2023-08-10T20:20:35.897(UTC-07:00),,5536759,4154709,,5344095,5343554
1691724035935,2023-08-10T20:20:35.935(UTC-07:00),-2016387,5555443,,-2488914,5355416,
1691724035972,2023-08-10T20:20:35.972(UTC-07:00),-2009345,5533050,4158560,-2468407,5334523,5355221
1691724036017,2023-08-10T20:20:36.017(UTC-07:00),-2012728,,4139746,-2471326,,5334328
1691724036047,2023-08-10T20:20:36.047(UTC-07:00),,5537498,4144920,,5337053,5336861
1691724036092,2023-08-10T20:20:36.092(UTC-07:00),-2011426,5547834,,-2467162,5334315,
1691724036130,2023-08-10T20:20:36.130(UTC-07:00),-2005577,5552908,4147901,-2467097,5333162,5333770
1691724036168,2023-08-10T20:20:36.168(UTC-07:00),-2016474,,4139166,-2473032,,5332970
1691724036204,2023-08-10T20:20:36.204(UTC-07:00),,5555573,4158191,,5338362,5337813
1691724036265,2023-08-10T20:20:36.265(UTC-07:00),-2016673,5544254,,-2453276,5319058,
1691724036302,2023-08-10T20:20:36.302(UTC-07:00),-2007025,5548604,4144958,-2445576,5310253,5318504
1691724036355,2023-08-10T20:20:36.355(UTC-07:00),-2009149,,4141709,-2444597,,5310642
1691724036400,2023-08-10T20:20:36.400(UTC-07:00),,5551896,4151041,,5309460,5309255
1691724036437,2023-08-10T20:20:36.437(UTC-07:00),-1994885,5560520,,-2425825,5290867,
1691724036467,2023-08-10T20:20:36.467(UTC-07:00),-1992689,5543904,4130880,-2423327,5287951,5290657
1691724036504,2023-08-10T20:20:36.504(UTC-07:00),-1997612,,4124670,-2422961,,5287742
1691724036542,2023-08-10T20:20:36.542(UTC-07:00),,5546781,4122422,,5287166,5286958
1691724036573,2023-08-10T20:20:36.573(UTC-07:00),-1994277,5540112,,-2417932,5282308,
1691724036609,2023-08-10T20:20:36.609(UTC-07:00),-2003111,5545591,4112273,-2448104,5311723,5281750
1691724036640,2023-08-10T20:20:36.640(UTC-07:00),-2000027,,4121257,-2460158,,5311527
1691724036693,2023-08-10T20:20:36.693(UTC-07:00),,5505327,4121360,,5321641,5321105
1691724036752,2023-08-10T20:20:36.752(UTC-07:00),-2020271,5532570,,-2484178,5344942,
1691724036790,2023-08-10T20:20:36.790(UTC-07:00),-2019234,5528593,4146747,-2481458,5340447,5343712
1691724036820,2023-08-10T20:20:36.820(UTC-07:00),-2013831,,4144064,-2467926,,5341469
1691724036864,2023-08-10T20:20:36.864(UTC-07:00),,5521545,4131207,,5327746,5327553
1691724036895,2023-08-10T20:20:36.895(UTC-07:00),-2020908,5538395,,-2470988,5330427,
1691724036932,2023-08-10T20:20:36.932(UTC-07:00),-2020097,5539713,4130844,-2476826,5335886,5330238
1691724036962,2023-08-10T20:20:36.962(UTC-07:00),-2016037,,4135310,-2468446,,5335697
1691724036999,2023-08-10T20:20:36.999(UTC-07:00),,5523608,4136954,,5327127,5326931
1691724037030,2023-08-10T20:20:37.030(UTC-07:00),-2008761,5524926,,-2451705,5309993,
1691724037068,2023-08-10T20:20:37.068(UTC-07:00),-2011628,5508888,4111423,-2444573,5302466,5309795
1691724037104,2023-08-10T20:20:37.104(UTC-07:00),-2000119,,4114748,-2432725,,5302266
1691724037135,2023-08-10T20:20:37.135(UTC-07:00),,5485160,4108596,,5288473,5287926
1691724037172,2023-08-10T20:20:37.172(UTC-07:00),-2008155,5518454,,-2441612,5296613,
1691724037203,2023-08-10T20:20:37.203(UTC-07:00),-2000968,5518614,4119054,-2430033,5284631,5296412
1691724037239,2023-08-10T20:20:37.239(UTC-07:00),-2011030,,4113713,-2427710,,5285021
1691724037270,2023-08-10T20:20:37.270(UTC-07:00),,5529792,4111561,,5282492,5282290
1691724037308,2023-08-10T20:20:37.308(UTC-07:00),-2000712,5539959,,-2425097,5279472,
1691724037345,2023-08-10T20:20:37.345(UTC-07:00),-2008216,5539643,4115735,-2444483,5298457,5279269
1691724037382,2023-08-10T20:20:37.382(UTC-07:00),-2014937,,4110176,-2463419,,5298263
1691724037419,2023-08-10T20:20:37.419(UTC-07:00),,5536645,4120027,,5317008,5316821
1691724037450,2023-08-10T20:20:37.450(UTC-07:00),-2020936,5536863,,-2483018,5336236,
1691724037487,2023-08-10T20:20:37.487(UTC-07:00),-2023136,5543990,4133242,-2490859,5343714,5336054
1691724037517,2023-08-10T20:20:37.517(UTC-07:00),-2021807,,4142768,-2487424,,5343533
1691724037554,2023-08-10T20:20:37.554(UTC-07:00),,5533253,4149682,,5339916,5339732
1691724037585,2023-08-10T20:20:37.585(UTC-07:00),-2017323,5527910,,-2479858,5331980,
1691724037622,2023-08-10T20:20:37.622(UTC-07:00),-2018942,5525062,4138824,-2478810,5330559,5331789
1691724037652,2023-08-10T20:20:37.652(UTC-07:00),-2027254,,4132135,-2478018,,5330377
1691724037689,2023-08-10T20:20:37.689(UTC-07:00),,5526655,4136685,,5329400,5329211
1691724037720,2023-08-10T20:20:37.720(UTC-07:00),-2016299,5516675,,-2467375,5318381,
1691724037757,2023-08-10T20:20:37.757(UTC-07:00),-2020181,5527205,4121750,-2466906,5317533,5318191
1691724037795,2023-08-10T20:20:37.795(UTC-07:00),-2021152,,4129629,-2462413,,5317342
1691724037832,2023-08-10T20:20:37.832(UTC-07:00),,5521951,4126193,,5312658,5312465
1691724037863,2023-08-10T20:20:37.863(UTC-07:00),-2017922,5516303,,-2452108,5301967,
1691724037899,2023-08-10T20:20:37.899(UTC-07:00),-2012975,5521739,4120150,-2448213,5297683,5301772
1691724037938,2023-08-10T20:20:37.938(UTC-07:00),-2006053,,4112511,-2430759,,5297485
1691724037976,2023-08-10T20:20:37.976(UTC-07:00),,5513953,4099166,,5279832,5279633
1691724038005,2023-08-10T20:20:38.005(UTC-07:00),-2014650,5522884,,-2441351,5290027,
1691724038043,2023-08-10T20:20:38.043(UTC-07:00),-2018783,5529657,4110350,-2441731,5290010,5289829
1691724038072,2023-08-10T20:20:38.072(UTC-07:00),-2017560,,4114277,-2440611,,5289809
1691724038109,2023-08-10T20:20:38.109(UTC-07:00),,5516059,4101288,,5288494,5288303
1691724038140,2023-08-10T20:20:38.140(UTC-07:00),-2024158,5533087,,-2464251,5311753,
1691724038177,2023-08-10T20:20:38.177(UTC-07:00),-2022595,5501026,4121806,-2461842,5308967,5311565
1691724038208,2023-08-10T20:20:38.208(UTC-07:00),-2017609,,4109673,-2465581,,5308779
1691724038244,2023-08-10T20:20:38.244(UTC-07:00),,5505195,4120952,,5312330,5312140
1691724038275,2023-08-10T20:20:38.275(UTC-07:00),-2020589,5491530,,-2458835,5305204,
1691724038312,2023-08-10T20:20:38.312(UTC-07:00),-2014519,5481184,4112035,-2453786,5299774,5305012
1691724038343,2023-08-10T20:20:38.343(UTC-07:00),-2027785,,4107165,-2452631,,5299580
1691724038379,2023-08-10T20:20:38.379(UTC-07:00),,5493695,4107048,,5298233,5298041
1691724038418,2023-08-10T20:20:38.418(UTC-07:00),-2021442,5484200,,-2451294,5296512,
1691724038454,2023-08-10T20:20:38.454(UTC-07:00),-2024801,5475380,4103914,-2438481,5283309,5296317
1691724038485,2023-08-10T20:20:38.485(UTC-07:00),-2019104,,4104307,-2433508,,5283108
1691724038522,2023-08-10T20:20:38.522(UTC-07:00),,5477526,4082030,,5277935,5277736
1691724038553,2023-08-10T20:20:38.553(UTC-07:00),-2022496,5480311,,-2437428,5281460,
1691724038589,2023-08-10T20:20:38.589(UTC-07:00),-2018977,5471384,4101056,-2421962,5265594,5281261
1691724038620,2023-08-10T20:20:38.620(UTC-07:00),-2023376,,4095935,-2418962,,5265391
1691724038657,2023-08-10T20:20:38.657(UTC-07:00),,5481839,4097579,,5262187,5261981
1691724038688,2023-08-10T20:20:38.688(UTC-07:00),-2013671,5463672,,-2403438,5246247,
1691724038725,2023-08-10T20:20:38.725(UTC-07:00),-2012227,5477445,4080308,-2395355,5237744,5246038
1691724038755,2023-08-10T20:20:38.755(UTC-07:00),-2020378,,4083821,-2397715,,5237531
1691724038792,2023-08-10T20:20:38.792(UTC-07:00),,5489494,4086655,,5239682,5239467
1691724038823,2023-08-10T20:20:38.823(UTC-07:00),-2015666,5479055,,-2390894,5232434,
1691724038859,2023-08-10T20:20:38.859(UTC-07:00),-2009110,5477061,4081016,-2382464,5223571,5232217
1691724038890,2023-08-10T20:20:38.890(UTC-07:00),-2017487,,4067090,-2411677,,5223363
1691724038927,2023-08-10T20:20:38.927(UTC-07:00),,5477498,4082546,,5252372,5252169
1691724038958,2023-08-10T20:20:38.958(UTC-07:00),-2029828,5472173,,-2430163,5270456,
1691724038994,2023-08-10T20:20:38.994(UTC-07:00),-2027701,5467046,4091190,-2434077,5273974,5270257
1691724039033,2023-08-10T20:20:39.033(UTC-07:00),-2036774,,4091346,-2442478,,5273776
1691724039069,2023-08-10T20:20:39.069(UTC-07:00),,5460687,4098911,,5281983,5281786
1691724039100,2023-08-10T20:20:39.100(UTC-07:00),-2029734,5474153,,-2443691,5282806,
1691724039137,2023-08-10T20:20:39.137(UTC-07:00),-2029213,5463933,4090457,-2438783,5277509,5282610
1691724039168,2023-08-10T20:20:39.168(UTC-07:00),-2018371,,4093847,-2428774,,5277311
1691724039204,2023-08-10T20:20:39.204(UTC-07:00),,5459514,4084838,,5267104,5266906
1691724039243,2023-08-10T20:20:39.243(UTC-07:00),-2026431,5463699,,-2432607,5270544,
1691724039279,2023-08-10T20:20:39.279(UTC-07:00),-2023923,5464045,4086480,-2422945,5260484,5270346
1691724039310,2023-08-10T20:20:39.310(UTC-07:00),-2022813,,4085027,-2412478,,5260278
1691724039355,2023-08-10T20:20:39.355(UTC-07:00),,5457255,4080413,,5249607,5249401
1691724039385,2023-08-10T20:20:39.385(UTC-07:00),-2024458,5445285,,-2407583,5244302,
1691724039422,2023-08-10T20:20:39.422(UTC-07:00),-2021580,5439280,4072474,-2403691,5239995,5244094
1691724039452,2023-08-10T20:20:39.452(UTC-07:00),-2013591,,4073284,-2398415,,5239785
1691724039490,2023-08-10T20:20:39.490(UTC-07:00),,5455751,4071880,,5234302,5234093
1691724039520,2023-08-10T20:20:39.520(UTC-07:00),-2021608,5462527,,-2401744,5237214,
1691724039557,2023-08-10T20:20:39.557(UTC-07:00),-2011574,5447214,4081248,-2380660,5215705,5237001
1691724039587,2023-08-10T20:20:39.587(UTC-07:00),-2013285,,4059848,-2379669,,5215490
1691724039625,2023-08-10T20:20:39.625(UTC-07:00),,5462372,4082006,,5214284,5214065
1691724039655,2023-08-10T20:20:39.655(UTC-07:00),-2003198,5444541,,-2357819,5191992,
1691724039692,2023-08-10T20:20:39.692(UTC-07:00),-2006111,5453157,4047839,-2346046,5179769,5191767
1691724039729,2023-08-10T20:20:39.729(UTC-07:00),-2004916,,4058015,-2350032,,5179545
1691724039759,2023-08-10T20:20:39.759(UTC-07:00),,5465591,4056693,,5183305,5183082
1691724039790,2023-08-10T20:20:39.790(UTC-07:00),-2006911,5461680,,-2358566,5191395,
1691724039827,2023-08-10T20:20:39.827(UTC-07:00),-2012794,5467567,4049362,-2387162,5219564,5191178
1691724039858,2023-08-10T20:20:39.858(UTC-07:00),-2013953,,4071571,-2402351,,5219354
1691724039895,2023-08-10T20:20:39.895(UTC-07:00),,5451873,4070433,,5234337,5234133
1691724039926,2023-08-10T20:20:39.926(UTC-07:00),-2012354,5452487,,-2408414,5239996,
1691724039962,2023-08-10T20:20:39.962(UTC-07:00),-2021086,5439082,4064401,-2419128,5250308,5239795
1691724039993,2023-08-10T20:20:39.993(UTC-07:00),-2019373,,4086487,-2409353,,5250108
1691724040037,2023-08-10T20:20:40.037(UTC-07:00),,5434831,4071749,,5240130,5239926
1691724040067,2023-08-10T20:20:40.067(UTC-07:00),-2020358,5420753,,-2398346,5228715,
1691724040097,2023-08-10T20:20:40.097(UTC-07:00),-2015358,5425499,4072253,-2392324,5222274,5228505
1691724040135,2023-08-10T20:20:40.135(UTC-07:00),-2015043,,4055472,-2397745,,5222069
1691724040165,2023-08-10T20:20:40.165(UTC-07:00),,5424027,4069962,,5227285,5227076
1691724040202,2023-08-10T20:20:40.202(UTC-07:00),-2024047,5432608,,-2403001,5232128,
1691724040232,2023-08-10T20:20:40.232(UTC-07:00),-2013037,5428119,4069669,-2398262,5226978,5231924
1691724040269,2023-08-10T20:20:40.269(UTC-07:00),-2013623,,4062691,-2397782,,5226774
1691724040300,2023-08-10T20:20:40.300(UTC-07:00),,5437009,4065394,,5226091,5225887
1691724040344,2023-08-10T20:20:40.344(UTC-07:00),-2009416,5432069,,-2387961,5215859,
1691724040382,2023-08-10T20:20:40.382(UTC-07:00),-2028607,5446385,4060872,-2398801,5226285,5215651
1691724040420,2023-08-10T20:20:40.420(UTC-07:00),-2017762,,4072811,-2388454,,5226076
1691724040457,2023-08-10T20:20:40.457(UTC-07:00),,5441256,4066210,,5215522,5215310
1691724040495,2023-08-10T20:20:40.495(UTC-07:00),-2010881,5436841,,-2378925,5205568,
1691724040539,2023-08-10T20:20:40.539(UTC-07:00),-2015299,5454088,4065980,-2378403,5204623,5205357
1691724040577,2023-08-10T20:20:40.577(UTC-07:00),-2017170,,4061575,-2373238,,5204408
1691724040614,2023-08-10T20:20:40.614(UTC-07:00),,5443952,4058028,,5199028,5198816
1691724040645,2023-08-10T20:20:40.645(UTC-07:00),-2019146,5451608,,-2372850,5198215,
1691724040683,2023-08-10T20:20:40.683(UTC-07:00),-2017448,5441513,4055837,-2362411,5187341,5197998
1691724040727,2023-08-10T20:20:40.727(UTC-07:00),-2011913,,4046102,-2354524,,5187122
1691724040765,2023-08-10T20:20:40.765(UTC-07:00),,5431687,4034779,,5179017,5178798
1691724040817,2023-08-10T20:20:40.817(UTC-07:00),-2014804,5460167,,-2359827,5183884,
1691724040855,2023-08-10T20:20:40.855(UTC-07:00),-2010209,5454865,4048466,-2372459,5196088,5183669
1691724040892,2023-08-10T20:20:40.892(UTC-07:00),-2028487,,4044707,-2406148,,5195877
1691724040930,2023-08-10T20:20:40.930(UTC-07:00),,5455370,4068949,,5229365,5229164
1691724040976,2023-08-10T20:20:40.976(UTC-07:00),-2024622,5435089,,-2416217,5239036,
1691724041005,2023-08-10T20:20:41.005(UTC-07:00),-2026098,5426988,4065854,-2420463,5242893,5238842
1691724041042,2023-08-10T20:20:41.042(UTC-07:00),-2024347,,4065264,-2432174,,5242700
1691724041087,2023-08-10T20:20:41.087(UTC-07:00),,5433966,4066347,,5254221,5254030
1691724041126,2023-08-10T20:20:41.126(UTC-07:00),-2038728,5443627,,-2441278,5262945,
1691724041170,2023-08-10T20:20:41.170(UTC-07:00),-2033465,5426369,4078833,-2429496,5250781,5262753
1691724041200,2023-08-10T20:20:41.200(UTC-07:00),-2027420,,4081994,-2427816,,5250589
1691724041244,2023-08-10T20:20:41.244(UTC-07:00),,5437184,4071688,,5248717,5248523
1691724041297,2023-08-10T20:20:41.297(UTC-07:00),-2023841,5430881,,-2417849,5238362,
1691724041350,2023-08-10T20:20:41.350(UTC-07:00),-2021036,5422656,4061238,-2409777,5229899,5238168
1691724041402,2023-08-10T20:20:41.402(UTC-07:00),-2023061,,4055980,-2407776,,5229700
1691724041440,2023-08-10T20:20:41.440(UTC-07:00),,5410080,4052418,,5227502,5227303
1691724041486,2023-08-10T20:20:41.486(UTC-07:00),-2024855,5409759,,-2407473,5226802,
1691724041522,2023-08-10T20:20:41.522(UTC-07:00),-2020232,5428351,4054079,-2410097,5229030,5226604
1691724041553,2023-08-10T20:20:41.553(UTC-07:00),-2018608,,4058626,-2406795,,5228832
1691724041604,2023-08-10T20:20:41.604(UTC-07:00),,5427207,4059509,,5225333,5225135
1691724041635,2023-08-10T20:20:41.635(UTC-07:00),-2015099,5445106,,-2400868,5219009,
1691724041672,2023-08-10T20:20:41.672(UTC-07:00),-2019325,5442384,4052432,-2399918,5217656,5218806
1691724041717,2023-08-10T20:20:41.717(UTC-07:00),-2022232,,4052399,-2399323,,5217453
1691724041755,2023-08-10T20:20:41.755(UTC-07:00),,5443754,4050076,,5216661,5216456
1691724041800,2023-08-10T20:20:41.800(UTC-07:00),-2030971,5454679,,-2401215,5218148,
1691724041830,2023-08-10T20:20:41.830(UTC-07:00),-2023468,5459129,4058598,-2391164,5207691,5217948
1691724041890,2023-08-10T20:20:41.890(UTC-07:00),-2019029,,4059515,-2382292,,5207486
1691724041920,2023-08-10T20:20:41.920(UTC-07:00),,5459616,4051386,,5198408,5198200
1691724041958,2023-08-10T20:20:41.958(UTC-07:00),-2018876,5464976,,-2378391,5194090,
1691724042003,2023-08-10T20:20:42.003(UTC-07:00),-2019802,5465733,4058619,-2375244,5190528,5193883
1691724042055,2023-08-10T20:20:42.055(UTC-07:00),-2032916,,4044528,-2405081,,5190323
1691724042099,2023-08-10T20:20:42.099(UTC-07:00),,5477790,4052549,,5219961,5219764
1691724042130,2023-08-10T20:20:42.130(UTC-07:00),-2025312,5451326,,-2419298,5233789,
1691724042212,2023-08-10T20:20:42.212(UTC-07:00),-2031011,5458657,4061377,-2433238,5247350,5233598
1691724042250,2023-08-10T20:20:42.250(UTC-07:00),-2031550,,4071518,-2437377,,5247162
1691724042295,2023-08-10T20:20:42.295(UTC-07:00),,5455100,4065286,,5251115,5250925
1691724042339,2023-08-10T20:20:42.339(UTC-07:00),-2026422,5452993,,-2438176,5251542,
1691724042378,2023-08-10T20:20:42.378(UTC-07:00),-2027319,5451005,4088105,-2424379,5235310,5249640
1691724042437,2023-08-10T20:20:42.437(UTC-07:00),-2025224,,4077748,-2418668,,5235117
1691724042483,2023-08-10T20:20:42.483(UTC-07:00),,5448853,4063746,,5229216,5229023
1691724042528,2023-08-10T20:20:42.528(UTC-07:00),-2015199,5444518,,-2406023,5216185,
1691724042564,2023-08-10T20:20:42.564(UTC-07:00),-2028687,5459394,4054530,-2412332,5221427,5215648
1691724042602,2023-08-10T20:20:42.602(UTC-07:00),-2024027,,4069168,-2405238,,5222412
1691724042647,2023-08-10T20:20:42.647(UTC-07:00),,5462845,4066380,,5215122,5214921
1691724042678,2023-08-10T20:20:42.678(UTC-07:00),-2015797,5467704,,-2389961,5201781,
1691724042715,2023-08-10T20:20:42.715(UTC-07:00),-2023173,5477971,4064413,-2394355,5205078,5201230
1691724042752,2023-08-10T20:20:42.752(UTC-07:00),-2010454,,4070612,-2367855,,5206041
1691724042782,2023-08-10T20:20:42.782(UTC-07:00),,5456150,4049161,,5178987,5178433
1691724042827,2023-08-10T20:20:42.827(UTC-07:00),-2010358,5458792,,-2365121,5175486,
1691724042865,2023-08-10T20:20:42.865(UTC-07:00),-2012737,5461951,4050465,-2357764,5165645,5173556
1691724042903,2023-08-10T20:20:42.903(UTC-07:00),-2009691,,4041864,-2351298,,5165424
1691724042939,2023-08-10T20:20:42.939(UTC-07:00),,5453341,4034499,,5157704,5157162
1691724042977,2023-08-10T20:20:42.977(UTC-07:00),-2012785,5462926,,-2346775,5152424,
1691724043022,2023-08-10T20:20:43.022(UTC-07:00),-2021446,5477823,4031370,-2370574,5175113,5151865
1691724043052,2023-08-10T20:20:43.052(UTC-07:00),-2022799,,4048040,-2391940,,5174911
1691724043089,2023-08-10T20:20:43.089(UTC-07:00),,5470272,4048323,,5196080,5195884
1691724043120,2023-08-10T20:20:43.120(UTC-07:00),-2025115,5467398,,-2406074,5209824,
1691724043157,2023-08-10T20:20:43.157(UTC-07:00),-2026962,5458967,4058140,-2407123,5210486,5209631
1691724043188,2023-08-10T20:20:43.188(UTC-07:00),-2020127,,4067264,-2399111,,5210290
1691724043224,2023-08-10T20:20:43.224(UTC-07:00),,5450775,4063213,,5201740,5201200
1691724043255,2023-08-10T20:20:43.255(UTC-07:00),-2025385,5459449,,-2395445,5197336,
1691724043292,2023-08-10T20:20:43.292(UTC-07:00),-2027462,5452424,4049514,-2395784,5197281,5197137
1691724043323,2023-08-10T20:20:43.323(UTC-07:00),-2027812,,4054212,-2400673,,5197087
1691724043360,2023-08-10T20:20:43.360(UTC-07:00),,5462273,4062644,,5201782,5201584
1691724043390,2023-08-10T20:20:43.390(UTC-07:00),-2026078,5466518,,-2393142,5194437,
1691724043427,2023-08-10T20:20:43.427(UTC-07:00),-2023734,5456790,4055765,-2385361,5186253,5194234
1691724043458,2023-08-10T20:20:43.458(UTC-07:00),-2017426,,4051685,-2372240,,5186042
1691724043494,2023-08-10T20:20:43.494(UTC-07:00),,5455698,4041403,,5172718,5172527
1691724043526,2023-08-10T20:20:43.526(UTC-07:00),-2019512,5452462,,-2372151,5172236,
1691724043562,2023-08-10T20:20:43.562(UTC-07:00),-2024283,5473711,4044584,-2377988,5177654,5172035
1691724043593,2023-08-10T20:20:43.593(UTC-07:00),-2013049,,4059346,-2356032,,5177447
1691724043637,2023-08-10T20:20:43.637(UTC-07:00),,5452173,4038222,,5155296,5155089
1691724043668,2023-08-10T20:20:43.668(UTC-07:00),-2028163,5473978,,-2371390,5170243,
1691724043704,2023-08-10T20:20:43.704(UTC-07:00),-2023322,5475053,4054761,-2358374,5156794,5170020
1691724043735,2023-08-10T20:20:43.735(UTC-07:00),-2013382,,4044494,-2350377,,5156596
1691724043772,2023-08-10T20:20:43.772(UTC-07:00),,5471932,4034794,,5148389,5148178
1691724043803,2023-08-10T20:20:43.803(UTC-07:00),-2015849,5478352,,-2352994,5150561,
1691724043839,2023-08-10T20:20:43.839(UTC-07:00),-2011382,5462825,4038571,-2344732,5141897,5150348
1691724043870,2023-08-10T20:20:43.870(UTC-07:00),-2017912,,4022004,-2365226,,5141689
1691724043907,2023-08-10T20:20:43.907(UTC-07:00),,5478419,4027457,,5161978,5161759
1691724043938,2023-08-10T20:20:43.938(UTC-07:00),-2028344,5452833,,-2391460,5187796,
1691724043974,2023-08-10T20:20:43.974(UTC-07:00),-2026248,5440315,4053152,-2381509,5177464,5187612
1691724044005,2023-08-10T20:20:44.005(UTC-07:00),-2027016,,4040708,-2390874,,5177269
1691724044043,2023-08-10T20:20:44.043(UTC-07:00),,5444359,4045514,,5186421,5186226
1691724044073,2023-08-10T20:20:44.073(UTC-07:00),-2027300,5437978,,-2386975,5182145,
1691724044110,2023-08-10T20:20:44.110(UTC-07:00),-2028813,5439889,4039591,-2385135,5179909,5181946
1691724044140,2023-08-10T20:20:44.140(UTC-07:00),-2025523,,4045475,-2380648,,5179687
1691724044177,2023-08-10T20:20:44.177(UTC-07:00),,5440539,4038393,,5175000,5174821
1691724044208,2023-08-10T20:20:44.208(UTC-07:00),-2021157,5447072,,-2380575,5174550,
1691724044252,2023-08-10T20:20:44.252(UTC-07:00),-2030741,5444920,4040861,-2384051,5177615,5174352
1691724044282,2023-08-10T20:20:44.282(UTC-07:00),-2029216,,4039461,-2375355,,5177417
1691724044319,2023-08-10T20:20:44.319(UTC-07:00),,5436230,4031110,,5168540,5168343
1691724044350,2023-08-10T20:20:44.350(UTC-07:00),-2039630,5447392,,-2385288,5178079,
1691724044387,2023-08-10T20:20:44.387(UTC-07:00),-2034374,5453255,4048009,-2374647,5167015,5177858
1691724044426,2023-08-10T20:20:44.426(UTC-07:00),-2026175,,4031537,-2367047,,5166831
1691724044462,2023-08-10T20:20:44.462(UTC-07:00),,5445882,4031766,,5159030,5158822
1691724044493,2023-08-10T20:20:44.493(UTC-07:00),-2023751,5448567,,-2367632,5159178,
1691724044529,2023-08-10T20:20:44.529(UTC-07:00),-2017739,5443685,4032859,-2357316,5148474,5158975
1691724044560,2023-08-10T20:20:44.560(UTC-07:00),-2026264,,4029690,-2357339,,5148269
1691724044597,2023-08-10T20:20:44.597(UTC-07:00),,5448238,4034755,,5148085,5147857
1691724044628,2023-08-10T20:20:44.628(UTC-07:00),-2024592,5444973,,-2347393,5137701,
1691724044664,2023-08-10T20:20:44.664(UTC-07:00),-2022231,5450441,4019037,-2348907,5138815,5137509
1691724044695,2023-08-10T20:20:44.695(UTC-07:00),-2023956,,4016874,-2369554,,5138607
1691724044732,2023-08-10T20:20:44.732(UTC-07:00),,5435557,4017743,,5159033,5158836
1691724044762,2023-08-10T20:20:44.762(UTC-07:00),-2029093,5422795,,-2378859,5167967,
1691724044799,2023-08-10T20:20:44.799(UTC-07:00),-2035476,5423683,4015589,-2390093,5178814,5167773
1691724044830,2023-08-10T20:20:44.830(UTC-07:00),-2034705,,4033248,-2394584,,5178604
1691724044867,2023-08-10T20:20:44.867(UTC-07:00),,5419895,4032328,,5182902,5182728
1691724044898,2023-08-10T20:20:44.898(UTC-07:00),-2029099,5408351,,-2381462,5169411,
1691724044935,2023-08-10T20:20:44.935(UTC-07:00),-2029844,5421481,4018474,-2386935,5174469,5169216
1691724044965,2023-08-10T20:20:44.965(UTC-07:00),-2027664,,4028890,-2371598,,5174272
1691724045010,2023-08-10T20:20:45.010(UTC-07:00),,5412814,4017869,,5158758,5158556
1691724045040,2023-08-10T20:20:45.040(UTC-07:00),-2032628,5406667,,-2370455,5157215,
1691724045077,2023-08-10T20:20:45.077(UTC-07:00),-2033464,5412125,4015943,-2373225,5159561,5156991
1691724045108,2023-08-10T20:20:45.108(UTC-07:00),-2026682,,4012283,-2359923,,5159379
1691724045144,2023-08-10T20:20:45.144(UTC-07:00),,5410970,4011470,,5145875,5145675
1691724045176,2023-08-10T20:20:45.176(UTC-07:00),-2039987,5417981,,-2371068,5156596,
1691724045212,2023-08-10T20:20:45.212(UTC-07:00),-2027057,5411467,4026310,-2355890,5141040,5156391
1691724045243,2023-08-10T20:20:45.243(UTC-07:00),-2026568,,4007954,-2350141,,5140833
1691724045280,2023-08-10T20:20:45.280(UTC-07:00),,5408155,4004196,,5134878,5134648
1691724045318,2023-08-10T20:20:45.318(UTC-07:00),-2025303,5413706,,-2348798,5133098,
1691724045354,2023-08-10T20:20:45.354(UTC-07:00),-2025714,5414082,4007177,-2337865,5121770,5132911
1691724045385,2023-08-10T20:20:45.385(UTC-07:00),-2019324,,4004124,-2337891,,5121557
1691724045422,2023-08-10T20:20:45.422(UTC-07:00),,5427824,4008730,,5121346,5121134
1691724045453,2023-08-10T20:20:45.453(UTC-07:00),-2012784,5417404,,-2329885,5112941,
1691724045495,2023-08-10T20:20:45.495(UTC-07:00),-2027398,5427064,3994584,-2338899,5121535,5112728
1691724045520,2023-08-10T20:20:45.520(UTC-07:00),-2024578,,4001105,-2366153,,5121305
1691724045557,2023-08-10T20:20:45.557(UTC-07:00),,5424790,4018368,,5148358,5148160
1691724045588,2023-08-10T20:20:45.588(UTC-07:00),-2036326,5406801,,-2377634,5159446,
1691724045632,2023-08-10T20:20:45.632(UTC-07:00),-2034789,5404205,4018871,-2382106,5163504,5159251
1691724045663,2023-08-10T20:20:45.663(UTC-07:00),-2039714,,4019728,-2384918,,5163309
1691724045700,2023-08-10T20:20:45.700(UTC-07:00),,5404303,4012958,,5165957,5165764
1691724045730,2023-08-10T20:20:45.730(UTC-07:00),-2035047,5396422,,-2388859,5169516,
1691724045767,2023-08-10T20:20:45.767(UTC-07:00),-2040011,5401482,4024267,-2385830,5166078,5169300
1691724045798,2023-08-10T20:20:45.798(UTC-07:00),-2041604,,4016986,-2385003,,5165916
1691724045834,2023-08-10T20:20:45.834(UTC-07:00),,5392505,4024453,,5164898,5164702
1691724045865,2023-08-10T20:20:45.865(UTC-07:00),-2028559,5384821,,-2366751,5146217,
1691724045902,2023-08-10T20:20:45.902(UTC-07:00),-2033517,5384783,4010055,-2368970,5148068,5146017
1691724045933,2023-08-10T20:20:45.933(UTC-07:00),-2036970,,4011920,-2370491,,5147868
1691724045969,2023-08-10T20:20:45.969(UTC-07:00),,5412059,4007753,,5149194,5148967
1691724046000,2023-08-10T20:20:46.000(UTC-07:00),-2042764,5414657,,-2380098,5158381,
1691724046037,2023-08-10T20:20:46.037(UTC-07:00),-2033382,5408911,4021052,-2370166,5148087,5158213
1691724046075,2023-08-10T20:20:46.075(UTC-07:00),-2033013,,4018730,-2367465,,5147888
1691724046105,2023-08-10T20:20:46.105(UTC-07:00),,5416727,4015384,,5144959,5144756
1691724046143,2023-08-10T20:20:46.143(UTC-07:00),-2029421,5413299,,-2354264,5131385,
1691724046173,2023-08-10T20:20:46.173(UTC-07:00),-2026914,5411234,4009153,-2346602,5123316,5131183
1691724046210,2023-08-10T20:20:46.210(UTC-07:00),-2033611,,3996502,-2348393,,5123085
1691724046240,2023-08-10T20:20:46.240(UTC-07:00),,5404776,3997937,,5124671,5124493
1691724046284,2023-08-10T20:20:46.284(UTC-07:00),-2030467,5414177,,-2342395,5118289,
1691724046322,2023-08-10T20:20:46.322(UTC-07:00),-2041388,5439695,4010288,-2355649,5131103,5118084
1691724046353,2023-08-10T20:20:46.353(UTC-07:00),-2026035,,4022426,-2330166,,5130893
1691724046390,2023-08-10T20:20:46.390(UTC-07:00),,5413375,4001700,,5105233,5105023
1691724046428,2023-08-10T20:20:46.428(UTC-07:00),-2037011,5419731,,-2346744,5121397,
1691724046464,2023-08-10T20:20:46.464(UTC-07:00),-2033519,5384539,3992610,-2358485,5132709,5121168
1691724046495,2023-08-10T20:20:46.495(UTC-07:00),-2041330,,3991617,-2389178,,5132518
1691724046532,2023-08-10T20:20:46.532(UTC-07:00),,5393609,4011026,,5163022,5162834
1691724046563,2023-08-10T20:20:46.563(UTC-07:00),-2043623,5398371,,-2406947,5180421,
1691724046622,2023-08-10T20:20:46.622(UTC-07:00),-2050655,5398357,4018198,-2413549,5186696,5180241
1691724046652,2023-08-10T20:20:46.652(UTC-07:00),-2048073,,4016858,-2408828,,5186517
1691724046690,2023-08-10T20:20:46.690(UTC-07:00),,5395979,4015194,,5181615,5181401
1691724046727,2023-08-10T20:20:46.727(UTC-07:00),-2037026,5388176,,-2398077,5170467,
1691724046765,2023-08-10T20:20:46.765(UTC-07:00),-2036548,5399227,4005321,-2401195,5173252,5170315
1691724046801,2023-08-10T20:20:46.801(UTC-07:00),-2047237,,4008338,-2410364,,5173068
1691724046840,2023-08-10T20:20:46.840(UTC-07:00),,5408635,4017283,,5182023,5181842
1691724046921,2023-08-10T20:20:46.921(UTC-07:00),-2046276,5393298,,-2401563,5172858,
1691724046952,2023-08-10T20:20:46.952(UTC-07:00),-2044132,5397473,4016070,-2393478,5164402,5172673
1691724047004,2023-08-10T20:20:47.004(UTC-07:00),-2043638,,4013480,-2392395,,5164217
1691724047035,2023-08-10T20:20:47.035(UTC-07:00),,5410919,4014206,,5162947,5162794
1691724047080,2023-08-10T20:20:47.080(UTC-07:00),-2047436,5416571,,-2398536,5168752,
1691724047132,2023-08-10T20:20:47.132(UTC-07:00),-2046412,5413311,4028119,-2389009,5158850,5168565
1691724047176,2023-08-10T20:20:47.176(UTC-07:00),-2035519,,4028412,-2369672,,5158658
1691724047207,2023-08-10T20:20:47.207(UTC-07:00),,5400016,4003876,,5139129,5138939
1691724047252,2023-08-10T20:20:47.252(UTC-07:00),-2037268,5408109,,-2377143,5146218,
1691724047297,2023-08-10T20:20:47.297(UTC-07:00),-2034132,5405168,4007516,-2368911,5137599,5146025
1691724047342,2023-08-10T20:20:47.342(UTC-07:00),-2033416,,4004151,-2355374,,5137404
1691724047373,2023-08-10T20:20:47.373(UTC-07:00),,5393709,3997875,,5123670,5123472
1691724047424,2023-08-10T20:20:47.424(UTC-07:00),-2036710,5405652,,-2366263,5134166,
1691724047455,2023-08-10T20:20:47.455(UTC-07:00),-2037159,5428711,4001764,-2366878,5134389,5133969
1691724047492,2023-08-10T20:20:47.492(UTC-07:00),-2031508,,4008031,-2366248,,5134196
1691724047545,2023-08-10T20:20:47.545(UTC-07:00),,5425909,4004286,,5133373,5133144
1691724047596,2023-08-10T20:20:47.596(UTC-07:00),-2042035,5422861,,-2380718,5147424,
1691724047671,2023-08-10T20:20:47.671(UTC-07:00),-2052790,5425071,4005065,-2417221,5183569,5147241
1691724047739,2023-08-10T20:20:47.739(UTC-07:00),-2049189,,4023012,-2428859,,5183396
1691724047770,2023-08-10T20:20:47.770(UTC-07:00),,5419921,4017469,,5194863,5194691
1691724047814,2023-08-10T20:20:47.814(UTC-07:00),-2048835,5409372,,-2432161,5197824,
1691724047859,2023-08-10T20:20:47.859(UTC-07:00),-2047863,5402417,4021972,-2432899,5198225,5197655
1691724047890,2023-08-10T20:20:47.890(UTC-07:00),-2046641,,4030487,-2432752,,5198057
1691724047934,2023-08-10T20:20:47.934(UTC-07:00),,5414594,4028193,,5197739,5197569
1691724047987,2023-08-10T20:20:47.987(UTC-07:00),-2049702,5401342,,-2420746,5185391,
1691724048040,2023-08-10T20:20:48.040(UTC-07:00),-2048152,5404143,4016942,-2418781,5183078,5185219
1691724048084,2023-08-10T20:20:48.084(UTC-07:00),-2046288,,4027962,-2413654,,5182904
1691724048129,2023-08-10T20:20:48.129(UTC-07:00),,5394486,4011055,,5177264,5176752
1691724048175,2023-08-10T20:20:48.175(UTC-07:00),-2041578,5390028,,-2408691,5173970,
1691724048219,2023-08-10T20:20:48.219(UTC-07:00),-2046096,5402226,4009879,-2408021,5172945,5173792
1691724048265,2023-08-10T20:20:48.265(UTC-07:00),-2046018,,4028336,-2400254,,5175113
1691724048302,2023-08-10T20:20:48.302(UTC-07:00),,5410819,4016478,,5166825,5166304
1691724048370,2023-08-10T20:20:48.370(UTC-07:00),-2051423,5408404,,-2400373,5166242,
1691724048407,2023-08-10T20:20:48.407(UTC-07:00),-2044875,5418682,4016126,-2392357,5157850,5166054
1691724048467,2023-08-10T20:20:48.467(UTC-07:00),-2034465,,4022341,-2378784,,5158824
1691724048505,2023-08-10T20:20:48.505(UTC-07:00),,5398706,4006841,,5144051,5143522
1691724048549,2023-08-10T20:20:48.549(UTC-07:00),-2038624,5419925,,-2379024,5144732,
1691724048580,2023-08-10T20:20:48.580(UTC-07:00),-2037912,5420291,4009566,-2367825,5133150,5144541
1691724048624,2023-08-10T20:20:48.624(UTC-07:00),-2029696,,4011431,-2359892,,5134110
1691724048670,2023-08-10T20:20:48.670(UTC-07:00),,5414653,3979753,,5125644,5125120
1691724048736,2023-08-10T20:20:48.736(UTC-07:00),-2043993,5407588,,-2401653,5167286,
1691724048767,2023-08-10T20:20:48.767(UTC-07:00),-2050622,5412197,4001794,-2425278,5189885,5166768
1691724048834,2023-08-10T20:20:48.834(UTC-07:00),-2046946,,4015215,-2432790,,5190311
1691724048865,2023-08-10T20:20:48.865(UTC-07:00),,5392913,4038216,,5195968,5195458
1691724048901,2023-08-10T20:20:48.901(UTC-07:00),-2053783,5411353,,-2437334,5200432,
1691724048933,2023-08-10T20:20:48.933(UTC-07:00),-2058207,5417306,4029191,-2435133,5197223,5199929
1691724048984,2023-08-10T20:20:48.984(UTC-07:00),-2054726,,4028102,-2426915,,5198249
1691724049022,2023-08-10T20:20:49.022(UTC-07:00),,5411394,4025328,,5189523,5189017
1691724049081,2023-08-10T20:20:49.081(UTC-07:00),-2050604,5419869,,-2426185,5188117,
1691724049120,2023-08-10T20:20:49.120(UTC-07:00),-2051626,5413750,4029956,-2416808,5178391,5187943
1691724049172,2023-08-10T20:20:49.172(UTC-07:00),-2043135,,4020251,-2410990,,5178216
1691724049209,2023-08-10T20:20:49.209(UTC-07:00),,5398418,4024330,,5169192,5168681
1691724049247,2023-08-10T20:20:49.247(UTC-07:00),-2055008,5437768,,-2419591,5177111,
1691724049284,2023-08-10T20:20:49.284(UTC-07:00),-2050683,5444898,4034614,-2410397,5164876,5174581
1691724049329,2023-08-10T20:20:49.329(UTC-07:00),-2047304,,4022647,-2401806,,5164700
1691724049367,2023-08-10T20:20:49.367(UTC-07:00),,5437734,4018392,,5155932,5155754
1691724049404,2023-08-10T20:20:49.404(UTC-07:00),-2045186,5441332,,-2391328,5145097,
1691724049449,2023-08-10T20:20:49.449(UTC-07:00),-2037678,5453761,4019628,-2385888,5139293,5144913
1691724049498,2023-08-10T20:20:49.498(UTC-07:00),-2045091,,4017042,-2380376,,5139110
1691724049547,2023-08-10T20:20:49.547(UTC-07:00),,5437487,4022399,,5131064,5130539
1691724049585,2023-08-10T20:20:49.585(UTC-07:00),-2043744,5441935,,-2375656,5125635,
1691724049629,2023-08-10T20:20:49.629(UTC-07:00),-2061491,5458516,4003967,-2419577,5167863,5124446
1691724049667,2023-08-10T20:20:49.667(UTC-07:00),-2059802,,4028998,-2425898,,5167693
1691724049727,2023-08-10T20:20:49.727(UTC-07:00),,5448577,4024338,,5173846,5173680
1691724049787,2023-08-10T20:20:49.787(UTC-07:00),-2061377,5436587,,-2426938,5174557,
1691724049825,2023-08-10T20:20:49.825(UTC-07:00),-2056633,5436875,4033319,-2427439,5174055,5174055
1691724049869,2023-08-10T20:20:49.869(UTC-07:00),-2048088,,4040234,-2419179,,5173890
1691724049914,2023-08-10T20:20:49.914(UTC-07:00),,5438785,4039709,,5165463,5165294
1691724049945,2023-08-10T20:20:49.945(UTC-07:00),-2042642,5435779,,-2405433,5151966,
1691724049997,2023-08-10T20:20:49.997(UTC-07:00),-2044485,5442847,4039529,-2400980,5147164,5151791
1691724050035,2023-08-10T20:20:50.035(UTC-07:00),-2043052,,4044639,-2397010,,5148155
1691724050080,2023-08-10T20:20:50.080(UTC-07:00),,5431894,4030833,,5143003,5142494
1691724050117,2023-08-10T20:20:50.117(UTC-07:00),-2038842,5458607,,-2398621,5144517,
1691724050155,2023-08-10T20:20:50.155(UTC-07:00),-2047252,5482039,4041458,-2406611,5151488,5144005
1691724050200,2023-08-10T20:20:50.200(UTC-07:00),-2049520,,4048870,-2406910,,5153074
1691724050244,2023-08-10T20:20:50.244(UTC-07:00),,5505723,4055270,,5152867,5152358
1691724050282,2023-08-10T20:20:50.282(UTC-07:00),-2049455,5517433,,-2406750,5152614,
1691724050320,2023-08-10T20:20:50.320(UTC-07:00),-2036894,5505127,4062789,-2379152,5123318,5151430
1691724050364,2023-08-10T20:20:50.364(UTC-07:00),-2036362,,4040461,-2377998,,5123140
1691724050395,2023-08-10T20:20:50.395(UTC-07:00),,5508682,4037821,,5121806,5121628
1691724050432,2023-08-10T20:20:50.432(UTC-07:00),-2035628,5519133,,-2376794,5121410,
1691724050469,2023-08-10T20:20:50.469(UTC-07:00),-2059887,5532753,4022736,-2421071,5164675,5120900
1691724050507,2023-08-10T20:20:50.507(UTC-07:00),-2062032,,4051235,-2434179,,5165103
1691724050537,2023-08-10T20:20:50.537(UTC-07:00),,5522708,4059794,,5178049,5177889
1691724050582,2023-08-10T20:20:50.582(UTC-07:00),-2059399,5519482,,-2445031,5188584,
1691724050612,2023-08-10T20:20:50.612(UTC-07:00),-2056985,5518271,4069552,-2445485,5188052,5188090
1691724050649,2023-08-10T20:20:50.649(UTC-07:00),-2062852,,4064899,-2448667,,5188491
1691724050686,2023-08-10T20:20:50.686(UTC-07:00),,5518508,4082158,,5191517,5191356
1691724050717,2023-08-10T20:20:50.717(UTC-07:00),-2062401,5506896,,-2443169,5185698,
1691724050754,2023-08-10T20:20:50.754(UTC-07:00),-2049954,5505552,4070021,-2431534,5172405,5184534
1691724050785,2023-08-10T20:20:50.785(UTC-07:00),-2061694,,4058537,-2436099,,5172244
1691724050821,2023-08-10T20:20:50.821(UTC-07:00),,5508066,4063445,,5176649,5176486
1691724050859,2023-08-10T20:20:50.859(UTC-07:00),-2054532,5500235,,-2426071,5166298,
1691724050890,2023-08-10T20:20:50.890(UTC-07:00),-2049508,5507016,4060654,-2418770,5158671,5166137
1691724050927,2023-08-10T20:20:50.927(UTC-07:00),-2050142,,4053663,-2414193,,5158504
1691724050958,2023-08-10T20:20:50.958(UTC-07:00),,5502844,4053429,,5153761,5153593
1691724050995,2023-08-10T20:20:50.995(UTC-07:00),-2047973,5514411,,-2404234,5143464,
1691724051031,2023-08-10T20:20:51.031(UTC-07:00),-2043202,5514915,4058771,-2388528,5127405,5143289
1691724051062,2023-08-10T20:20:51.062(UTC-07:00),-2044170,,4041937,-2397994,,5127230
1691724051099,2023-08-10T20:20:51.099(UTC-07:00),,5524187,4057594,,5136524,5136351
1691724051130,2023-08-10T20:20:51.130(UTC-07:00),-2041566,5527833,,-2388796,5126978,
1691724051167,2023-08-10T20:20:51.167(UTC-07:00),-2047900,5537421,4045074,-2398502,5136337,5126802
1691724051204,2023-08-10T20:20:51.204(UTC-07:00),-2046542,,4050723,-2399272,,5136162
1691724051242,2023-08-10T20:20:51.242(UTC-07:00),,5540793,4056919,,5136761,5136588
1691724051272,2023-08-10T20:20:51.272(UTC-07:00),-2052702,5540083,,-2424112,5161263,
1691724051309,2023-08-10T20:20:51.309(UTC-07:00),-2058893,5536808,4060379,-2457814,5194659,5161105
1691724051339,2023-08-10T20:20:51.339(UTC-07:00),-2070448,,4067675,-2480233,,5194514
1691724051377,2023-08-10T20:20:51.377(UTC-07:00),,5543412,4089108,,5216790,5216646
1691724051407,2023-08-10T20:20:51.407(UTC-07:00),-2064382,5537060,,-2480251,5216524,
1691724051444,2023-08-10T20:20:51.444(UTC-07:00),-2074423,5529685,4085357,-2483795,5219789,5216384
1691724051475,2023-08-10T20:20:51.475(UTC-07:00),-2066021,,4086695,-2471614,,5219646
1691724051511,2023-08-10T20:20:51.511(UTC-07:00),,5513541,4069843,,5207320,5207176
1691724051543,2023-08-10T20:20:51.543(UTC-07:00),-2060873,5517819,,-2473110,5208531,
1691724051579,2023-08-10T20:20:51.579(UTC-07:00),-2069206,5535325,4073169,-2484625,5219763,5208389
1691724051610,2023-08-10T20:20:51.610(UTC-07:00),-2076696,,4080393,-2483071,,5219619
1691724051646,2023-08-10T20:20:51.646(UTC-07:00),,5519897,4080213,,5217922,5217777
1691724051677,2023-08-10T20:20:51.677(UTC-07:00),-2069895,5526924,,-2472132,5206696,
1691724051714,2023-08-10T20:20:51.714(UTC-07:00),-2072214,5529765,4074361,-2479468,5213748,5206554
1691724051745,2023-08-10T20:20:51.745(UTC-07:00),-2062107,,4089226,-2474391,,5213602
1691724051781,2023-08-10T20:20:51.781(UTC-07:00),,5530585,4079985,,5208382,5208241
1691724051819,2023-08-10T20:20:51.819(UTC-07:00),-2067963,5542995,,-2482944,5216654,
1691724051856,2023-08-10T20:20:51.856(UTC-07:00),-2052263,5535642,4099769,-2469093,5202518,5216512
1691724051887,2023-08-10T20:20:51.887(UTC-07:00),-2060431,,4080001,-2470347,,5202373
1691724051924,2023-08-10T20:20:51.924(UTC-07:00),,5549508,4082348,,5203484,5203339
1691724051955,2023-08-10T20:20:51.955(UTC-07:00),-2056618,5551340,,-2470237,5203086,
1691724051992,2023-08-10T20:20:51.992(UTC-07:00),-2066736,5563004,4081350,-2474469,5207031,5202942
1691724052022,2023-08-10T20:20:52.022(UTC-07:00),-2069796,,4081090,-2490912,,5206889
1691724052059,2023-08-10T20:20:52.059(UTC-07:00),,5565946,4086475,,5223196,5223066
1691724052090,2023-08-10T20:20:52.090(UTC-07:00),-2070312,5557816,,-2522693,5254724,
1691724052134,2023-08-10T20:20:52.134(UTC-07:00),-2079134,5546004,4097198,-2541967,5273764,5254608
1691724052165,2023-08-10T20:20:52.165(UTC-07:00),-2086283,,4102675,-2566938,,5273649
1691724052201,2023-08-10T20:20:52.201(UTC-07:00),,5568014,4133927,,5298508,5298399
1691724052232,2023-08-10T20:20:52.232(UTC-07:00),-2078400,5530870,,-2556692,5288042,
1691724052269,2023-08-10T20:20:52.269(UTC-07:00),-2093047,5544701,4110688,-2571581,5302718,5287935
1691724052300,2023-08-10T20:20:52.300(UTC-07:00),-2098703,,4137608,-2567480,,5302607
1691724052336,2023-08-10T20:20:52.336(UTC-07:00),,5550174,4127366,,5298395,5298284
1691724052367,2023-08-10T20:20:52.367(UTC-07:00),-2086637,5556158,,-2561702,5292396,
1691724052404,2023-08-10T20:20:52.404(UTC-07:00),-2094494,5553752,4120381,-2564981,5295453,5292284
1691724052435,2023-08-10T20:20:52.435(UTC-07:00),-2078188,,4119382,-2542433,,5295338
1691724052479,2023-08-10T20:20:52.479(UTC-07:00),,5532448,4105792,,5272678,5272563
1691724052510,2023-08-10T20:20:52.510(UTC-07:00),-2091184,5545576,,-2548358,5278375,
1691724052546,2023-08-10T20:20:52.546(UTC-07:00),-2085205,5549900,4123934,-2542032,5271812,5278255
1691724052577,2023-08-10T20:20:52.577(UTC-07:00),-2077238,,4122365,-2531311,,5271696
1691724052614,2023-08-10T20:20:52.614(UTC-07:00),,5544916,4107028,,5260856,5260735
1691724052645,2023-08-10T20:20:52.645(UTC-07:00),-2083389,5553936,,-2532206,5261510,
1691724052682,2023-08-10T20:20:52.682(UTC-07:00),-2077757,5561978,4118711,-2520366,5249421,5261384
1691724052712,2023-08-10T20:20:52.712(UTC-07:00),-2074979,,4098614,-2511532,,5249294
1691724052750,2023-08-10T20:20:52.750(UTC-07:00),,5548312,4094145,,5240334,5240206
1691724052780,2023-08-10T20:20:52.780(UTC-07:00),-2078577,5556784,,-2510572,5239118,
1691724052817,2023-08-10T20:20:52.817(UTC-07:00),-2075246,5564446,4106055,-2502131,5230417,5238988
1691724052847,2023-08-10T20:20:52.847(UTC-07:00),-2074101,,4099461,-2505376,,5230282
1691724052884,2023-08-10T20:20:52.884(UTC-07:00),,5554237,4089669,,5233396,5233272
1691724052915,2023-08-10T20:20:52.915(UTC-07:00),-2086886,5556526,,-2540434,5268213,
1691724052951,2023-08-10T20:20:52.951(UTC-07:00),-2088695,5550950,4107410,-2560462,5288020,5268100
1691724052989,2023-08-10T20:20:52.989(UTC-07:00),-2084131,,4120744,-2567308,,5287910
1691724053020,2023-08-10T20:20:53.020(UTC-07:00),,5543435,4119783,,5294650,5294544
1691724053057,2023-08-10T20:20:53.057(UTC-07:00),-2090977,5542778,,-2583375,5310510,
1691724053094,2023-08-10T20:20:53.094(UTC-07:00),-2083685,5516961,4131778,-2575431,5302358,5310406
1691724053125,2023-08-10T20:20:53.125(UTC-07:00),-2086890,,4114880,-2573777,,5302253
1691724053169,2023-08-10T20:20:53.169(UTC-07:00),,5520152,4124505,,5300496,5300391
1691724053200,2023-08-10T20:20:53.200(UTC-07:00),-2081339,5502001,,-2559662,5286170,
1691724053236,2023-08-10T20:20:53.236(UTC-07:00),-2089542,5521903,4098784,-2574965,5301264,5286065
1691724053275,2023-08-10T20:20:53.275(UTC-07:00),-2084495,,4115423,-2574173,,5301161
1691724053312,2023-08-10T20:20:53.312(UTC-07:00),,5521217,4113869,,5300267,5300159
1691724053349,2023-08-10T20:20:53.349(UTC-07:00),-2100478,5521665,,-2584489,5310374,
1691724053380,2023-08-10T20:20:53.380(UTC-07:00),-2083653,5512556,4121797,-2564923,5290593,5310266
1691724053417,2023-08-10T20:20:53.417(UTC-07:00),-2070908,,4112000,-2541166,,5290482
1691724053455,2023-08-10T20:20:53.455(UTC-07:00),,5496806,4094227,,5266614,5266501
1691724053485,2023-08-10T20:20:53.485(UTC-07:00),-2086533,5530465,,-2563691,5288916,
1691724053522,2023-08-10T20:20:53.522(UTC-07:00),-2086674,5526502,4107563,-2558097,5283104,5288806
1691724053552,2023-08-10T20:20:53.552(UTC-07:00),-2080268,,4102828,-2545873,,5282990
1691724053589,2023-08-10T20:20:53.589(UTC-07:00),,5531971,4102846,,5270652,5270535
1691724053619,2023-08-10T20:20:53.619(UTC-07:00),-2074765,5519199,,-2537892,5262443,
1691724053650,2023-08-10T20:20:53.650(UTC-07:00),-2083789,5526850,4094688,-2539145,5263464,5262326
1691724053686,2023-08-10T20:20:53.686(UTC-07:00),-2078057,,4104052,-2536045,,5263346
1691724053717,2023-08-10T20:20:53.717(UTC-07:00),,5532439,4090090,,5260130,5260014
1691724053754,2023-08-10T20:20:53.754(UTC-07:00),-2081854,5539532,,-2540959,5264814,
1691724053784,2023-08-10T20:20:53.784(UTC-07:00),-2087278,5539834,4090441,-2567571,5291208,5264701
1691724053821,2023-08-10T20:20:53.821(UTC-07:00),-2088503,,4097683,-2591957,,5291108
1691724053852,2023-08-10T20:20:53.852(UTC-07:00),,5526156,4105323,,5315410,5315321
1691724053889,2023-08-10T20:20:53.889(UTC-07:00),-2101490,5521869,,-2615213,5338490,
1691724053934,2023-08-10T20:20:53.934(UTC-07:00),-2096659,5518905,4126939,-2621625,5344731,5338403
1691724053965,2023-08-10T20:20:53.965(UTC-07:00),-2100627,,4128467,-2633967,,5344649
1691724054002,2023-08-10T20:20:54.002(UTC-07:00),,5518612,4135025,,5356910,5356829
1691724054039,2023-08-10T20:20:54.039(UTC-07:00),-2103278,5504152,,-2631780,5354559,
1691724054077,2023-08-10T20:20:54.077(UTC-07:00),-2092038,5482611,4135148,-2602343,5324945,5354472
1691724054130,2023-08-10T20:20:54.130(UTC-07:00),-2095859,,4113826,-2611999,,5324854
1691724054182,2023-08-10T20:20:54.182(UTC-07:00),,5492918,4119865,,5334421,5334331
1691724054226,2023-08-10T20:20:54.226(UTC-07:00),-2093995,5480069,,-2598561,5320800,
1691724054264,2023-08-10T20:20:54.264(UTC-07:00),-2099143,5480865,4100476,-2597523,5319577,5320707
1691724054302,2023-08-10T20:20:54.302(UTC-07:00),-2103632,,4108280,-2608869,,5319484
1691724054354,2023-08-10T20:20:54.354(UTC-07:00),,5501138,4116383,,5330740,5330648
1691724054406,2023-08-10T20:20:54.406(UTC-07:00),-2107088,5502908,,-2600462,5322148,
1691724054452,2023-08-10T20:20:54.452(UTC-07:00),-2098179,5499469,4116773,-2586782,5308277,5322053
1691724054496,2023-08-10T20:20:54.496(UTC-07:00),-2084132,,4107244,-2572880,,5308175
1691724054556,2023-08-10T20:20:54.556(UTC-07:00),,5493842,4096342,,5294173,5294072
1691724054595,2023-08-10T20:20:54.595(UTC-07:00),-2087059,5502877,,-2570371,5291460,
1691724054647,2023-08-10T20:20:54.647(UTC-07:00),-2085586,5501382,4104288,-2569187,5290067,5291355
1691724054685,2023-08-10T20:20:54.685(UTC-07:00),-2083496,,4102545,-2557560,,5289961
1691724054737,2023-08-10T20:20:54.737(UTC-07:00),,5498336,4095264,,5278226,5278118
1691724054767,2023-08-10T20:20:54.767(UTC-07:00),-2085054,5505813,,-2553306,5273756,
1691724054811,2023-08-10T20:20:54.811(UTC-07:00),-2084810,5497850,4096400,-2550115,5270346,5273647
1691724054879,2023-08-10T20:20:54.879(UTC-07:00),-2079945,,4086307,-2544185,,5270237
1691724054925,2023-08-10T20:20:54.925(UTC-07:00),,5515573,4093520,,5264195,5264079
1691724054984,2023-08-10T20:20:54.984(UTC-07:00),-2077890,5518267,,-2555636,5275421,
1691724055015,2023-08-10T20:20:55.015(UTC-07:00),-2085360,5506973,4081359,-2587561,5307155,5275323
1691724055067,2023-08-10T20:20:55.067(UTC-07:00),-2104123,,4098997,-2630127,,5307067
1691724055128,2023-08-10T20:20:55.128(UTC-07:00),,5510152,4104576,,5349552,5349470
1691724055194,2023-08-10T20:20:55.194(UTC-07:00),-2109357,5499797,,-2640754,5360020,
1691724055269,2023-08-10T20:20:55.269(UTC-07:00),-2104541,5477805,4122452,-2641128,5360241,5359943
1691724055308,2023-08-10T20:20:55.308(UTC-07:00),-2110250,,4118652,-2646775,,5360811
1691724055367,2023-08-10T20:20:55.367(UTC-07:00),,5486076,4129396,,5366383,5366302
1691724055412,2023-08-10T20:20:55.412(UTC-07:00),-2103182,5477024,,-2628482,5348570,
1691724055464,2023-08-10T20:20:55.464(UTC-07:00),-2101001,5490264,4117841,-2625382,5343976,5347490
1691724055516,2023-08-10T20:20:55.516(UTC-07:00),-2087631,,4125785,-2604817,,5345169
1691724055562,2023-08-10T20:20:55.562(UTC-07:00),,5455703,4111190,,5322857,5322438
1691724055630,2023-08-10T20:20:55.630(UTC-07:00),-2106314,5493212,,-2616856,5335028,
1691724055674,2023-08-10T20:20:55.674(UTC-07:00),-2103946,5490141,4116376,-2611794,5329787,5334938
1691724055756,2023-08-10T20:20:55.756(UTC-07:00),-2097148,,4120854,-2602471,,5332872
1691724055795,2023-08-10T20:20:55.795(UTC-07:00),,5490579,4114365,,5321798,5321374
1691724055831,2023-08-10T20:20:55.831(UTC-07:00),-2081545,5492086,,-2580307,5301650,
1691724055870,2023-08-10T20:20:55.870(UTC-07:00),-2091156,5507467,4115947,-2575712,5295526,5300552
1691724055921,2023-08-10T20:20:55.921(UTC-07:00),-2091081,,4102490,-2568161,,5296050
1691724055967,2023-08-10T20:20:55.967(UTC-07:00),,5491361,4100422,,5286734,5286297
1691724056005,2023-08-10T20:20:56.005(UTC-07:00),-2098051,5527316,,-2573690,5292347,
1691724056064,2023-08-10T20:20:56.064(UTC-07:00),-2099055,5507319,4090385,-2602420,5319554,5291246
1691724056103,2023-08-10T20:20:56.103(UTC-07:00),-2107840,,4093497,-2642583,,5320751
1691724056154,2023-08-10T20:20:56.154(UTC-07:00),,5462033,4115747,,5359180,5358789
1691724056186,2023-08-10T20:20:56.186(UTC-07:00),-2105568,5462005,,-2647627,5365051,
1691724056237,2023-08-10T20:20:56.237(UTC-07:00),-2103255,5452932,4108543,-2641062,5357011,5363982
1691724056282,2023-08-10T20:20:56.282(UTC-07:00),-2093782,,4116043,-2625769,,5358862
1691724056320,2023-08-10T20:20:56.320(UTC-07:00),,5439978,4100379,,5343156,5342745
1691724056379,2023-08-10T20:20:56.379(UTC-07:00),-2096306,5462114,,-2627730,5345268,
1691724056462,2023-08-10T20:20:56.462(UTC-07:00),-2095448,5458510,4106216,-2622149,5338176,5344192
1691724056507,2023-08-10T20:20:56.507(UTC-07:00),-2107052,,4095886,-2627538,,5338738
1691724056552,2023-08-10T20:20:56.552(UTC-07:00),,5474738,4107010,,5344047,5343967
1691724056596,2023-08-10T20:20:56.596(UTC-07:00),-2103061,5473406,,-2615302,5333567,
1691724056642,2023-08-10T20:20:56.642(UTC-07:00),-2092135,5468154,4100413,-2599260,5317345,5333477
1691724056679,2023-08-10T20:20:56.679(UTC-07:00),-2096563,,4091817,-2586017,,5318519
1691724056732,2023-08-10T20:20:56.732(UTC-07:00),,5469044,4088177,,5305161,5305062
1691724056784,2023-08-10T20:20:56.784(UTC-07:00),-2091308,5472791,,-2590385,5309968,
1691724056821,2023-08-10T20:20:56.821(UTC-07:00),-2094691,5479990,4099765,-2579739,5297776,5308874
1691724056852,2023-08-10T20:20:56.852(UTC-07:00),-2095898,,4088964,-2588689,,5297674
1691724056904,2023-08-10T20:20:56.904(UTC-07:00),,5488485,4101601,,5305532,5305102
1691724056942,2023-08-10T20:20:56.942(UTC-07:00),-2092004,5501572,,-2590634,5310732,
1691724056979,2023-08-10T20:20:56.979(UTC-07:00),-2101882,5489196,4072538,-2633910,5352515,5309648
1691724057017,2023-08-10T20:20:57.017(UTC-07:00),-2105772,,4093311,-2652284,,5353087
1691724057054,2023-08-10T20:20:57.054(UTC-07:00),,5461459,4114020,,5371056,5370649
1691724057092,2023-08-10T20:20:57.092(UTC-07:00),-2110776,5446628,,-2649658,5367951,
1691724057129,2023-08-10T20:20:57.129(UTC-07:00),-2107147,5430650,4101359,-2654499,5371962,5367524
1691724057160,2023-08-10T20:20:57.160(UTC-07:00),-2104941,,4110182,-2636395,,5372529
1691724057197,2023-08-10T20:20:57.197(UTC-07:00),,5421288,4099055,,5353353,5352938
1691724057227,2023-08-10T20:20:57.227(UTC-07:00),-2100768,5403704,,-2618483,5336255,
1691724057264,2023-08-10T20:20:57.264(UTC-07:00),-2106030,5398423,4084200,-2617567,5335167,5336168
1691724057295,2023-08-10T20:20:57.295(UTC-07:00),-2097895,,4081100,-2615266,,5335078
1691724057332,2023-08-10T20:20:57.332(UTC-07:00),,5401043,4070642,,5332358,5331940
1691724057370,2023-08-10T20:20:57.370(UTC-07:00),-2100759,5422040,,-2612533,5329121,
1691724057407,2023-08-10T20:20:57.407(UTC-07:00),-2100972,5413170,4085205,-2599829,5316236,5329030
1691724057444,2023-08-10T20:20:57.444(UTC-07:00),-2092220,,4075297,-2598399,,5316777
1691724057475,2023-08-10T20:20:57.475(UTC-07:00),,5423371,4076880,,5315256,5315163
1691724057505,2023-08-10T20:20:57.505(UTC-07:00),-2098535,5433807,,-2587525,5304193,
1691724057549,2023-08-10T20:20:57.549(UTC-07:00),-2082830,5424919,4068623,-2577469,5293944,5304097
1691724057579,2023-08-10T20:20:57.579(UTC-07:00),-2085812,,4069252,-2565480,,5293845
1691724057610,2023-08-10T20:20:57.610(UTC-07:00),,5429628,4066623,,5281755,5281652
1691724057646,2023-08-10T20:20:57.646(UTC-07:00),-2082004,5446651,,-2563653,5279721,
1691724057685,2023-08-10T20:20:57.685(UTC-07:00),-2077794,5450813,4065552,-2558895,5274754,5279614
1691724057721,2023-08-10T20:20:57.721(UTC-07:00),-2081950,,4072849,-2553555,,5274648
1691724057752,2023-08-10T20:20:57.752(UTC-07:00),,5444411,4051453,,5269202,5269098
1691724057789,2023-08-10T20:20:57.789(UTC-07:00),-2091371,5448684,,-2581620,5297067,
1691724057820,2023-08-10T20:20:57.820(UTC-07:00),-2089062,5432068,4063481,-2602197,5317463,5296974
1691724057856,2023-08-10T20:20:57.856(UTC-07:00),-2104302,,4077464,-2625493,,5317379
1691724057894,2023-08-10T20:20:57.894(UTC-07:00),,5433435,4094018,,5340593,5340506
1691724057925,2023-08-10T20:20:57.925(UTC-07:00),-2098056,5419584,,-2619423,5334354,
1691724057961,2023-08-10T20:20:57.961(UTC-07:00),-2097276,5415193,4078534,-2623774,5338546,5334274
1691724057992,2023-08-10T20:20:57.992(UTC-07:00),-2097249,,4084558,-2621021,,5338465
1691724058029,2023-08-10T20:20:58.029(UTC-07:00),,5423995,4081456,,5335629,5335548
1691724058060,2023-08-10T20:20:58.060(UTC-07:00),-2101847,5424913,,-2618525,5332971,
1691724058096,2023-08-10T20:20:58.096(UTC-07:00),-2106628,5439508,4080047,-2624750,5339034,5332889
1691724058127,2023-08-10T20:20:58.127(UTC-07:00),-2096942,,4101875,-2612575,,5338951
1691724058164,2023-08-10T20:20:58.164(UTC-07:00),,5447925,4086961,,5326693,5326607
1691724058195,2023-08-10T20:20:58.195(UTC-07:00),-2106780,5446752,,-2621548,5335498,
1691724058231,2023-08-10T20:20:58.231(UTC-07:00),-2093369,5445880,4097745,-2608484,5322262,5335413
1691724058262,2023-08-10T20:20:58.262(UTC-07:00),-2100325,,4085717,-2609241,,5322174
1691724058299,2023-08-10T20:20:58.299(UTC-07:00),,5449759,4092289,,5322846,5322757
1691724058337,2023-08-10T20:20:58.337(UTC-07:00),-2099952,5467827,,-2606289,5319716,
1691724058374,2023-08-10T20:20:58.374(UTC-07:00),-2094225,5471668,4082685,-2605034,5318283,5319627
1691724058405,2023-08-10T20:20:58.405(UTC-07:00),-2089699,,4100093,-2584961,,5318190
1691724058442,2023-08-10T20:20:58.442(UTC-07:00),,5470011,4079451,,5298023,5297927
1691724058472,2023-08-10T20:20:58.472(UTC-07:00),-2090118,5468734,,-2583553,5296423,
1691724058509,2023-08-10T20:20:58.509(UTC-07:00),-2095506,5478788,4089583,-2583405,5296084,5296327
1691724058547,2023-08-10T20:20:58.547(UTC-07:00),-2088145,,4091382,-2574966,,5295985
1691724058585,2023-08-10T20:20:58.585(UTC-07:00),,5488420,4087335,,5287446,5287344
1691724058622,2023-08-10T20:20:58.622(UTC-07:00),-2084654,5478054,,-2578417,5290699,
1691724058652,2023-08-10T20:20:58.652(UTC-07:00),-2092716,5456674,4074418,-2602817,5314918,5290606
1691724058689,2023-08-10T20:20:58.689(UTC-07:00),-2104459,,4086113,-2629832,,5314835
1691724058720,2023-08-10T20:20:58.720(UTC-07:00),,5466077,4096529,,5341771,5341693
1691724058757,2023-08-10T20:20:58.757(UTC-07:00),-2099459,5444268,,-2630485,5342270,
1691724058787,2023-08-10T20:20:58.787(UTC-07:00),-2105706,5451399,4100238,-2641540,5353175,5342195
1691724058824,2023-08-10T20:20:58.824(UTC-07:00),-2100403,,4112335,-2635067,,5353099
1691724058855,2023-08-10T20:20:58.855(UTC-07:00),,5442779,4114665,,5346550,5346470
1691724058892,2023-08-10T20:20:58.892(UTC-07:00),-2094171,5453491,,-2622088,5333411,
1691724058922,2023-08-10T20:20:58.922(UTC-07:00),-2101928,5446691,4098583,-2620924,5332084,5333329
1691724058959,2023-08-10T20:20:58.959(UTC-07:00),-2092441,,4089977,-2620516,,5332002
1691724058990,2023-08-10T20:20:58.990(UTC-07:00),,5451545,4098753,,5331513,5331428
1691724059026,2023-08-10T20:20:59.026(UTC-07:00),-2095946,5457697,,-2618569,5329400,
1691724059065,2023-08-10T20:20:59.065(UTC-07:00),-2092958,5450303,4098154,-2613425,5324090,5329316
1691724059102,2023-08-10T20:20:59.102(UTC-07:00),-2094388,,4102061,-2614266,,5324003
1691724059132,2023-08-10T20:20:59.132(UTC-07:00),,5468825,4101227,,5324760,5324672
1691724059169,2023-08-10T20:20:59.169(UTC-07:00),-2091261,5463196,,-2605091,5315411,
1691724059200,2023-08-10T20:20:59.200(UTC-07:00),-2093232,5474844,4088694,-2604142,5314290,5315326
1691724059237,2023-08-10T20:20:59.237(UTC-07:00),-2084243,,4097118,-2593152,,5314200
1691724059267,2023-08-10T20:20:59.267(UTC-07:00),,5480483,4096288,,5303119,5303026
1691724059305,2023-08-10T20:20:59.305(UTC-07:00),-2080785,5473436,,-2591905,5301690,
1691724059335,2023-08-10T20:20:59.335(UTC-07:00),-2094933,5487395,4091098,-2591703,5301306,5301599
1691724059372,2023-08-10T20:20:59.372(UTC-07:00),-2077578,,4105841,-2574354,,5301207
1691724059402,2023-08-10T20:20:59.402(UTC-07:00),,5482781,4086342,,5283761,5283664
1691724059439,2023-08-10T20:20:59.439(UTC-07:00),-2086421,5483959,,-2594053,5303272,
1691724059470,2023-08-10T20:20:59.470(UTC-07:00),-2096448,5453369,4078749,-2623524,5332578,5303187
1691724059506,2023-08-10T20:20:59.506(UTC-07:00),-2101344,,4092245,-2643790,,5332503
1691724059537,2023-08-10T20:20:59.537(UTC-07:00),,5458321,4098675,,5352695,5352623
1691724059581,2023-08-10T20:20:59.581(UTC-07:00),-2105750,5460582,,-2655519,5364283,
1691724059612,2023-08-10T20:20:59.612(UTC-07:00),-2099674,5437928,4110713,-2645303,5353927,5364214
1691724059649,2023-08-10T20:20:59.649(UTC-07:00),-2108825,,4107227,-2645457,,5353856
1691724059687,2023-08-10T20:20:59.687(UTC-07:00),,5441786,4105524,,5353939,5353869
1691724059724,2023-08-10T20:20:59.724(UTC-07:00),-2099579,5453383,,-2644396,5352735,
1691724059755,2023-08-10T20:20:59.755(UTC-07:00),-2100890,5449443,4107335,-2645652,5353851,5352664
1691724059792,2023-08-10T20:20:59.792(UTC-07:00),-2095509,,4111470,-2634288,,5353777
1691724059822,2023-08-10T20:20:59.822(UTC-07:00),,5445214,4100571,,5342339,5342265
1691724059859,2023-08-10T20:20:59.859(UTC-07:00),-2108494,5453299,,-2647806,5355711,
1691724059890,2023-08-10T20:20:59.890(UTC-07:00),-2098646,5448649,4115810,-2630160,5337911,5355633
1691724059926,2023-08-10T20:20:59.926(UTC-07:00),-2095121,,4096622,-2619667,,5337832
1691724059957,2023-08-10T20:20:59.957(UTC-07:00),,5446250,4096971,,5327258,5327176
1691724059994,2023-08-10T20:20:59.994(UTC-07:00),-2088303,5452971,,-2614340,5321769,
1691724060025,2023-08-10T20:21:00.025(UTC-07:00),-2094523,5452053,4090383,-2613403,5320667,5321687
1691724060061,2023-08-10T20:21:00.061(UTC-07:00),-2081935,,4101399,-2592032,,5320579
1691724060092,2023-08-10T20:21:00.092(UTC-07:00),,5449266,4077031,,5299118,5299029
1691724060129,2023-08-10T20:21:00.129(UTC-07:00),-2094076,5446409,,-2594208,5301117,
1691724060160,2023-08-10T20:21:00.160(UTC-07:00),-2093220,5446754,4079919,-2588409,5295140,5301030
1691724060197,2023-08-10T20:21:00.197(UTC-07:00),-2092212,,4073545,-2598605,,5295048
1691724060235,2023-08-10T20:21:00.235(UTC-07:00),,5475379,4081984,,5305156,5305065
1691724060272,2023-08-10T20:21:00.272(UTC-07:00),-2091934,5466936,,-2598156,5304530,
1691724060302,2023-08-10T20:21:00.302(UTC-07:00),-2101294,5456222,4074474,-2636883,5343099,5304446
1691724060339,2023-08-10T20:21:00.339(UTC-07:00),-2107124,,4091477,-2660531,,5343032
1691724060370,2023-08-10T20:21:00.370(UTC-07:00),,5457012,4100235,,5366618,5366557
1691724060407,2023-08-10T20:21:00.407(UTC-07:00),-2118668,5453418,,-2677953,5383919,
1691724060437,2023-08-10T20:21:00.437(UTC-07:00),-2117277,5434507,4109736,-2682262,5388113,5383860
1691724060482,2023-08-10T20:21:00.482(UTC-07:00),-2117265,,4115751,-2682477,,5388053
1691724060512,2023-08-10T20:21:00.512(UTC-07:00),,5444572,4124170,,5388210,5388147
1691724060549,2023-08-10T20:21:00.549(UTC-07:00),-2107143,5435243,,-2663609,5369217,
1691724060580,2023-08-10T20:21:00.580(UTC-07:00),-2107852,5444825,4107749,-2663538,5369019,5369153
1691724060616,2023-08-10T20:21:00.616(UTC-07:00),-2104751,,4112540,-2659756,,5368955
1691724060647,2023-08-10T20:21:00.647(UTC-07:00),,5449336,4102300,,5365109,5365042
1691724060684,2023-08-10T20:21:00.684(UTC-07:00),-2112367,5450211,,-2663974,5369197,
1691724060715,2023-08-10T20:21:00.715(UTC-07:00),-2105173,5455884,4116339,-2661684,5366780,5369132
1691724060751,2023-08-10T20:21:00.751(UTC-07:00),-2105607,,4127698,-2654187,,5366712
1691724060782,2023-08-10T20:21:00.782(UTC-07:00),,5463306,4111854,,5359146,5359075
1691724060819,2023-08-10T20:21:00.819(UTC-07:00),-2107734,5463206,,-2646166,5350985,
1691724060858,2023-08-10T20:21:00.858(UTC-07:00),-2092146,5446029,4120596,-2625307,5329974,5350910
1691724060894,2023-08-10T20:21:00.894(UTC-07:00),-2096158,,4101404,-2623185,,5329895
1691724060925,2023-08-10T20:21:00.925(UTC-07:00),,5456990,4097500,,5327697,5327616
1691724060961,2023-08-10T20:21:00.961(UTC-07:00),-2099515,5462639,,-2619417,5323769,
1691724060992,2023-08-10T20:21:00.992(UTC-07:00),-2098097,5482045,4099717,-2623292,5327486,5323689
1691724061030,2023-08-10T20:21:01.030(UTC-07:00),-2102275,,4101387,-2626376,,5327408
1691724061067,2023-08-10T20:21:01.067(UTC-07:00),,5476771,4111355,,5330416,5330336
1691724061097,2023-08-10T20:21:01.097(UTC-07:00),-2096441,5490264,,-2619035,5322914,
1691724061135,2023-08-10T20:21:01.135(UTC-07:00),-2093007,5479064,4105079,-2601559,5305269,5322829
1691724061172,2023-08-10T20:21:01.172(UTC-07:00),-2106378,,4083122,-2638974,,5305190
1691724061209,2023-08-10T20:21:01.209(UTC-07:00),,5483265,4101952,,5342534,5342466
1691724061240,2023-08-10T20:21:01.240(UTC-07:00),-2103246,5469562,,-2662379,5365808,
1691724061277,2023-08-10T20:21:01.277(UTC-07:00),-2112612,5459872,4103135,-2677918,5381230,5365748
1691724061307,2023-08-10T20:21:01.307(UTC-07:00),-2109542,,4117847,-2687333,,5381172
1691724061344,2023-08-10T20:21:01.344(UTC-07:00),,5451805,4117306,,5390533,5390480
1691724061382,2023-08-10T20:21:01.382(UTC-07:00),-2114356,5450714,,-2689298,5392393,
1691724061419,2023-08-10T20:21:01.419(UTC-07:00),-2121694,5458890,4126974,-2689811,5392799,5392339
1691724061450,2023-08-10T20:21:01.450(UTC-07:00),-2109743,,4119160,-2673532,,5392744
1691724061487,2023-08-10T20:21:01.487(UTC-07:00),,5450485,4106615,,5376408,5376352
1691724061517,2023-08-10T20:21:01.517(UTC-07:00),-2109589,5459498,,-2680327,5383091,
1691724061554,2023-08-10T20:21:01.554(UTC-07:00),-2103372,5463940,4127948,-2673354,5376001,5383033
1691724061585,2023-08-10T20:21:01.585(UTC-07:00),-2108842,,4121802,-2664281,,5375939
1691724061622,2023-08-10T20:21:01.622(UTC-07:00),,5462138,4116114,,5366804,5366739
1691724061652,2023-08-10T20:21:01.652(UTC-07:00),-2104100,5458593,,-2651637,5354028,
1691724061689,2023-08-10T20:21:01.689(UTC-07:00),-2101841,5466732,4112909,-2645030,5347285,5353961
1691724061720,2023-08-10T20:21:01.720(UTC-07:00),-2094504,,4107752,-2633998,,5347216
1691724061757,2023-08-10T20:21:01.757(UTC-07:00),,5458296,4104572,,5336114,5336043
1691724061795,2023-08-10T20:21:01.795(UTC-07:00),-2100169,5464515,,-2635933,5337904,
1691724061832,2023-08-10T20:21:01.832(UTC-07:00),-2102988,5484689,4101380,-2637140,5338965,5337830
1691724061862,2023-08-10T20:21:01.862(UTC-07:00),-2094131,,4109649,-2626000,,5338892
1691724061907,2023-08-10T20:21:01.907(UTC-07:00),,5485466,4097621,,5327675,5327599
1691724061937,2023-08-10T20:21:01.937(UTC-07:00),-2103128,5480949,,-2627656,5329180,
1691724061974,2023-08-10T20:21:01.974(UTC-07:00),-2093242,5486795,4111878,-2611092,5312457,5329100
1691724062012,2023-08-10T20:21:02.012(UTC-07:00),-2092440,,4098114,-2612018,,5312375
1691724062049,2023-08-10T20:21:02.049(UTC-07:00),,5502347,4098371,,5313219,5313135
1691724062080,2023-08-10T20:21:02.080(UTC-07:00),-2094352,5503926,,-2607168,5308201,
1691724062116,2023-08-10T20:21:02.116(UTC-07:00),-2091035,5501622,4102042,-2610059,5310929,5308119
1691724062147,2023-08-10T20:21:02.147(UTC-07:00),-2101671,,4082335,-2651477,,5310855
1691724062184,2023-08-10T20:21:02.184(UTC-07:00),,5500775,4102398,,5352205,5352145
1691724062222,2023-08-10T20:21:02.222(UTC-07:00),-2113219,5494063,,-2686366,5386981,
1691724062266,2023-08-10T20:21:02.266(UTC-07:00),-2120085,5499472,4120712,-2705588,5406106,5386931
1691724062297,2023-08-10T20:21:02.297(UTC-07:00),-2120368,,4139360,-2705123,,5406056
1691724062335,2023-08-10T20:21:02.335(UTC-07:00),,5484808,4135405,,5405545,5405502
1691724062372,2023-08-10T20:21:02.372(UTC-07:00),-2124183,5489655,,-2712268,5412602,
1691724062424,2023-08-10T20:21:02.424(UTC-07:00),-2115319,5489452,4151593,-2701136,5401372,5412551
1691724062455,2023-08-10T20:21:02.455(UTC-07:00),-2112292,,4133462,-2698838,,5401324
1691724062492,2023-08-10T20:21:02.492(UTC-07:00),,5488921,4134067,,5398979,5398927
1691724062522,2023-08-10T20:21:02.522(UTC-07:00),-2113300,5490728,,-2697142,5397181,
1691724062559,2023-08-10T20:21:02.559(UTC-07:00),-2111823,5487310,4141045,-2688845,5388782,5397130
1691724062604,2023-08-10T20:21:02.604(UTC-07:00),-2111062,,4139416,-2689627,,5388728
1691724062635,2023-08-10T20:21:02.635(UTC-07:00),,5499152,4143076,,5389460,5389407
1691724062671,2023-08-10T20:21:02.671(UTC-07:00),-2116797,5518250,,-2690921,5390651,
1691724062710,2023-08-10T20:21:02.710(UTC-07:00),-2114277,5510839,4135705,-2686273,5385894,5390595
1691724062762,2023-08-10T20:21:02.762(UTC-07:00),-2109371,,4136932,-2675480,,5385836
1691724062793,2023-08-10T20:21:02.793(UTC-07:00),,5517802,4139371,,5374985,5374924
1691724062837,2023-08-10T20:21:02.837(UTC-07:00),-2096438,5504967,,-2659291,5358675,
1691724062867,2023-08-10T20:21:02.867(UTC-07:00),-2115984,5529234,4116400,-2672376,5371641,5358616
1691724062905,2023-08-10T20:21:02.905(UTC-07:00),-2098476,,4140934,-2652378,,5371574
1691724062943,2023-08-10T20:21:02.943(UTC-07:00),,5511408,4122477,,5351510,5351440
1691724062986,2023-08-10T20:21:02.986(UTC-07:00),-2097022,5522406,,-2636493,5335485,
1691724063032,2023-08-10T20:21:03.032(UTC-07:00),-2091386,5499553,4120628,-2616984,5315824,5335410
1691724063093,2023-08-10T20:21:03.093(UTC-07:00),-2089922,,4104175,-2613841,,5315745
1691724063130,2023-08-10T20:21:03.130(UTC-07:00),,5511416,4100070,,5312523,5312446
1691724063189,2023-08-10T20:21:03.189(UTC-07:00),-2092654,5506797,,-2610045,5308572,
1691724063234,2023-08-10T20:21:03.234(UTC-07:00),-2103560,5515867,4093933,-2655753,5354139,5308496
1691724063272,2023-08-10T20:21:03.272(UTC-07:00),-2119784,,4101728,-2696072,,5354081
1691724063309,2023-08-10T20:21:03.309(UTC-07:00),,5503570,4129032,,5394351,5394301
1691724063347,2023-08-10T20:21:03.347(UTC-07:00),-2112183,5478060,,-2695459,5393641,
1691724063392,2023-08-10T20:21:03.392(UTC-07:00),-2116928,5484803,4122610,-2709132,5407226,5393595
1691724063422,2023-08-10T20:21:03.422(UTC-07:00),-2119706,,4130318,-2710656,,5407184
1691724063490,2023-08-10T20:21:03.490(UTC-07:00),,5479788,4133335,,5408666,5408620
1691724063559,2023-08-10T20:21:03.559(UTC-07:00),-2110763,5474990,,-2695936,5393853,
1691724063618,2023-08-10T20:21:03.618(UTC-07:00),-2107210,5476332,4123476,-2687940,5385755,5393801
1691724063670,2023-08-10T20:21:03.670(UTC-07:00),-2118522,,4122148,-2690379,,5385704
1691724063707,2023-08-10T20:21:03.707(UTC-07:00),,5476798,4122195,,5388092,5388037
1691724063760,2023-08-10T20:21:03.760(UTC-07:00),-2103883,5475979,,-2679896,5377501,
1691724063834,2023-08-10T20:21:03.834(UTC-07:00),-2111981,5477463,4120447,-2673007,5370502,5377447
1691724063909,2023-08-10T20:21:03.909(UTC-07:00),-2109131,,4120889,-2676781,,5370444
1691724063970,2023-08-10T20:21:03.970(UTC-07:00),,5489563,4126511,,5374161,5374100
1691724064015,2023-08-10T20:21:04.015(UTC-07:00),-2112407,5479276,,-2666646,5363907,
1691724064105,2023-08-10T20:21:04.105(UTC-07:00),-2110274,5495326,4126266,-2664166,5361305,5363846
1691724064150,2023-08-10T20:21:04.150(UTC-07:00),-2098773,,4122578,-2637557,,5361238
1691724064209,2023-08-10T20:21:04.209(UTC-07:00),,5487291,4095018,,5334561,5334494
1691724064270,2023-08-10T20:21:04.270(UTC-07:00),-2110110,5499696,,-2646507,5344021,
1691724064314,2023-08-10T20:21:04.314(UTC-07:00),-2101106,5500767,4111028,-2626847,5322899,5342959
1691724064352,2023-08-10T20:21:04.352(UTC-07:00),-2106970,,4103139,-2631809,,5322828
1691724064427,2023-08-10T20:21:04.427(UTC-07:00),,5512081,4112153,,5327717,5327638
1691724064487,2023-08-10T20:21:04.487(UTC-07:00),-2100653,5517501,,-2618027,5317616,
1691724064525,2023-08-10T20:21:04.525(UTC-07:00),-2117658,5503537,4075240,-2672124,5367628,5313915
1691724064592,2023-08-10T20:21:04.592(UTC-07:00),-2112246,,4108973,-2689420,,5369539
1691724064652,2023-08-10T20:21:04.652(UTC-07:00),,5485977,4126165,,5386455,5386075
1691724064697,2023-08-10T20:21:04.697(UTC-07:00),-2113429,5501845,,-2691116,5392317,
1691724064734,2023-08-10T20:21:04.734(UTC-07:00),-2109105,5489246,4128956,-2678509,5378935,5391929
1691724064765,2023-08-10T20:21:04.765(UTC-07:00),-2103075,,4131616,-2668894,,5380176
1691724064802,2023-08-10T20:21:04.802(UTC-07:00),,5460221,4123508,,5368194,5367815
1691724064839,2023-08-10T20:21:04.839(UTC-07:00),-2103657,5478862,,-2662570,5362078,
1691724064885,2023-08-10T20:21:04.885(UTC-07:00),-2105886,5497566,4115685,-2664619,5364000,5362012
1691724064929,2023-08-10T20:21:04.929(UTC-07:00),-2102754,,4130149,-2644366,,5366523
1691724064989,2023-08-10T20:21:04.989(UTC-07:00),,5477942,4116689,,5343894,5343492
1691724065027,2023-08-10T20:21:05.027(UTC-07:00),-2093190,5474151,,-2620487,5319537,
1691724065072,2023-08-10T20:21:05.072(UTC-07:00),-2095291,5484546,4092757,-2612707,5310284,5318472
1691724065102,2023-08-10T20:21:05.102(UTC-07:00),-2093181,,4091760,-2603347,,5312760
1691724065154,2023-08-10T20:21:05.154(UTC-07:00),,5468658,4077671,,5301672,5301260
1691724065192,2023-08-10T20:21:05.192(UTC-07:00),-2092635,5495577,,-2607483,5305316,
1691724065229,2023-08-10T20:21:05.229(UTC-07:00),-2100024,5482578,4079885,-2624100,5321780,5305237
1691724065274,2023-08-10T20:21:05.274(UTC-07:00),-2103904,,4084007,-2652781,,5321712
1691724065312,2023-08-10T20:21:05.312(UTC-07:00),,5473677,4098635,,5350329,5350267
1691724065357,2023-08-10T20:21:05.357(UTC-07:00),-2109658,5481171,,-2673642,5371070,
1691724065394,2023-08-10T20:21:05.394(UTC-07:00),-2119880,5471054,4109658,-2674152,5370143,5370023
1691724065431,2023-08-10T20:21:05.431(UTC-07:00),-2113302,,4111058,-2670892,,5372044
1691724065461,2023-08-10T20:21:05.461(UTC-07:00),,5460442,4106049,,5368728,5368668
1691724065492,2023-08-10T20:21:05.492(UTC-07:00),-2114145,5468329,,-2672137,5370508,
1691724065536,2023-08-10T20:21:05.536(UTC-07:00),-2107988,5460770,4108820,-2663839,5362088,5370448
1691724065575,2023-08-10T20:21:05.575(UTC-07:00),-2097145,,4110609,-2650160,,5362674
1691724065612,2023-08-10T20:21:05.612(UTC-07:00),,5455844,4095121,,5348929,5348861
1691724065642,2023-08-10T20:21:05.642(UTC-07:00),-2090410,5462230,,-2642188,5341483,
1691724065679,2023-08-10T20:21:05.679(UTC-07:00),-2088280,5469482,4100674,-2636770,5335265,5341083
1691724065710,2023-08-10T20:21:05.710(UTC-07:00),-2089184,,4094840,-2631289,,5335194
1691724065746,2023-08-10T20:21:05.746(UTC-07:00),,5459487,4086074,,5329311,5328911
1691724065777,2023-08-10T20:21:05.777(UTC-07:00),-2102226,5479057,,-2645356,5342910,
1691724065815,2023-08-10T20:21:05.815(UTC-07:00),-2100660,5479274,4096151,-2650969,5348388,5342843
1691724065845,2023-08-10T20:21:05.845(UTC-07:00),-2102077,,4109687,-2639083,,5348318
1691724065889,2023-08-10T20:21:05.889(UTC-07:00),,5465191,4096029,,5336364,5336292
1691724065920,2023-08-10T20:21:05.920(UTC-07:00),-2093531,5479965,,-2632721,5329858,
1691724065957,2023-08-10T20:21:05.957(UTC-07:00),-2092489,5476709,4096096,-2616329,5313312,5329781
1691724065987,2023-08-10T20:21:05.987(UTC-07:00),-2101905,,4081503,-2640284,,5313235
1691724066025,2023-08-10T20:21:06.025(UTC-07:00),,5474055,4076836,,5337123,5337060
1691724066061,2023-08-10T20:21:06.061(UTC-07:00),-2114895,5463192,,-2673889,5370608,
1691724066092,2023-08-10T20:21:06.092(UTC-07:00),-2111247,5455406,4089041,-2686955,5383569,5370552
1691724066129,2023-08-10T20:21:06.129(UTC-07:00),-2116680,,4101943,-2697458,,5383521
1691724066160,2023-08-10T20:21:06.160(UTC-07:00),,5461373,4106496,,5393977,5393930
1691724066196,2023-08-10T20:21:06.196(UTC-07:00),-2118559,5451068,,-2705203,5401629,
1691724066235,2023-08-10T20:21:06.235(UTC-07:00),-2121541,5439311,4117161,-2697985,5394317,5401581
1691724066272,2023-08-10T20:21:06.272(UTC-07:00),-2114398,,4109684,-2691259,,5394267
1691724066302,2023-08-10T20:21:06.302(UTC-07:00),,5443751,4101449,,5387492,5387441
1691724066339,2023-08-10T20:21:06.339(UTC-07:00),-2107561,5441983,,-2690566,5386699,
1691724066370,2023-08-10T20:21:06.370(UTC-07:00),-2125835,5476780,4103247,-2710273,5406318,5386655
1691724066407,2023-08-10T20:21:06.407(UTC-07:00),-2095117,,4136050,-2679944,,5406264
1691724066437,2023-08-10T20:21:06.437(UTC-07:00),,5453092,4106520,,5375882,5375830
1691724066474,2023-08-10T20:21:06.474(UTC-07:00),-2106612,5471016,,-2685745,5381580,
1691724066505,2023-08-10T20:21:06.505(UTC-07:00),-2106449,5467073,4119530,-2685096,5380824,5381526
1691724066542,2023-08-10T20:21:06.542(UTC-07:00),-2107287,,4114097,-2681856,,5380770
1691724066579,2023-08-10T20:21:06.579(UTC-07:00),,5466020,4112468,,5377478,5377423
1691724066610,2023-08-10T20:21:06.610(UTC-07:00),-2107586,5463415,,-2676802,5372316,
1691724066646,2023-08-10T20:21:06.646(UTC-07:00),-2106807,5473906,4106702,-2672644,5368043,5372258
1691724066677,2023-08-10T20:21:06.677(UTC-07:00),-2098820,,4107206,-2658965,,5367984
1691724066714,2023-08-10T20:21:06.714(UTC-07:00),,5476639,4096976,,5354245,5354186
1691724066745,2023-08-10T20:21:06.745(UTC-07:00),-2102774,5484455,,-2667609,5362771,
1691724066782,2023-08-10T20:21:06.782(UTC-07:00),-2100087,5480905,4111063,-2659939,5354979,5362708
1691724066819,2023-08-10T20:21:06.819(UTC-07:00),-2111714,,4086639,-2690595,,5354921
1691724066849,2023-08-10T20:21:06.849(UTC-07:00),,5462561,4098332,,5385527,5385477
1691724066880,2023-08-10T20:21:06.880(UTC-07:00),-2114393,5455582,,-2708823,5403661,
1691724066917,2023-08-10T20:21:06.917(UTC-07:00),-2118999,5440604,4108098,-2726608,5421366,5403617
1691724066947,2023-08-10T20:21:06.947(UTC-07:00),-2119788,,4112901,-2737076,,5421328
1691724066984,2023-08-10T20:21:06.984(UTC-07:00),,5440104,4121500,,5431762,5431726
1691724067015,2023-08-10T20:21:07.015(UTC-07:00),-2112464,5432065,,-2725809,5420424,
1691724067059,2023-08-10T20:21:07.059(UTC-07:00),-2112517,5473130,4119512,-2726799,5421341,5420388
1691724067090,2023-08-10T20:21:07.090(UTC-07:00),-2112581,,4136345,-2704703,,5421300
1691724067127,2023-08-10T20:21:07.127(UTC-07:00),,5457011,4108229,,5399159,5399115
1691724067165,2023-08-10T20:21:07.165(UTC-07:00),-2104800,5456543,,-2702199,5396567,
1691724067202,2023-08-10T20:21:07.202(UTC-07:00),-2115267,5469100,4122434,-2706741,5401017,5396520
1691724067232,2023-08-10T20:21:07.232(UTC-07:00),-2100455,,4126580,-2683115,,5400966
1691724067269,2023-08-10T20:21:07.269(UTC-07:00),,5451375,4105063,,5377290,5377238
1691724067300,2023-08-10T20:21:07.300(UTC-07:00),-2112928,5467173,,-2689224,5383297,
1691724067336,2023-08-10T20:21:07.336(UTC-07:00),-2095757,5456839,4112217,-2665412,5359369,5383240
1691724067367,2023-08-10T20:21:07.367(UTC-07:00),-2092773,,4095780,-2656169,,5359313
1691724067404,2023-08-10T20:21:07.404(UTC-07:00),,5447423,4088516,,5350011,5349948
1691724067435,2023-08-10T20:21:07.435(UTC-07:00),-2102689,5455035,,-2667724,5361444,
1691724067479,2023-08-10T20:21:07.479(UTC-07:00),-2100915,5461248,4107648,-2663112,5356715,5361385
1691724067510,2023-08-10T20:21:07.510(UTC-07:00),-2095727,,4105701,-2638893,,5356656
1691724067546,2023-08-10T20:21:07.546(UTC-07:00),,5451007,4080666,,5332370,5332304
1691724067577,2023-08-10T20:21:07.577(UTC-07:00),-2096683,5472037,,-2644274,5337620,
1691724067614,2023-08-10T20:21:07.614(UTC-07:00),-2096829,5456907,4086880,-2663601,5356825,5337557
1691724067645,2023-08-10T20:21:07.645(UTC-07:00),-2111336,,4086048,-2699542,,5356772
1691724067689,2023-08-10T20:21:07.689(UTC-07:00),,5445208,4099776,,5392664,5392616
1691724067720,2023-08-10T20:21:07.720(UTC-07:00),-2109063,5418563,,-2702435,5395464,
1691724067757,2023-08-10T20:21:07.757(UTC-07:00),-2103313,5407473,4099474,-2698667,5391606,5395421
1691724067788,2023-08-10T20:21:07.788(UTC-07:00),-2098645,,4092699,-2699548,,5391560
1691724067824,2023-08-10T20:21:07.824(UTC-07:00),,5397312,4092524,,5392396,5392352
1691724067855,2023-08-10T20:21:07.855(UTC-07:00),-2112279,5405634,,-2707523,5400284,
1691724067899,2023-08-10T20:21:07.899(UTC-07:00),-2106274,5403225,4100920,-2693434,5386102,5400237
1691724067930,2023-08-10T20:21:07.930(UTC-07:00),-2102797,,4086594,-2683312,,5386053
1691724067967,2023-08-10T20:21:07.967(UTC-07:00),,5388514,4074999,,5375884,5375837
1691724067997,2023-08-10T20:21:07.997(UTC-07:00),-2111140,5407822,,-2699663,5392143,
1691724068035,2023-08-10T20:21:08.035(UTC-07:00),-2101411,5397302,4094981,-2673077,5365450,5392090
1691724068065,2023-08-10T20:21:08.065(UTC-07:00),-2101122,,4078893,-2670560,,5365396
1691724068109,2023-08-10T20:21:08.109(UTC-07:00),,5392448,4076057,,5362825,5362768
1691724068140,2023-08-10T20:21:08.140(UTC-07:00),-2111567,5411568,,-2675807,5367959,
1691724068176,2023-08-10T20:21:08.176(UTC-07:00),-2112948,5412725,4077982,-2677947,5369986,5367900
1691724068207,2023-08-10T20:21:08.207(UTC-07:00),-2105160,,4089034,-2651936,,5369927
1691724068245,2023-08-10T20:21:08.245(UTC-07:00),,5401892,4060311,,5343855,5343792
1691724068282,2023-08-10T20:21:08.282(UTC-07:00),-2098576,5394752,,-2651578,5343372,
1691724068312,2023-08-10T20:21:08.312(UTC-07:00),-2093751,5400278,4068744,-2644511,5336176,5343307
1691724068349,2023-08-10T20:21:08.349(UTC-07:00),-2101930,,4061539,-2646661,,5336111
1691724068380,2023-08-10T20:21:08.380(UTC-07:00),,5415655,4065869,,5338195,5338126
1691724068417,2023-08-10T20:21:08.417(UTC-07:00),-2094504,5421691,,-2639411,5330810,
1691724068447,2023-08-10T20:21:08.447(UTC-07:00),-2095468,5419039,4064921,-2652038,5343309,5330743
1691724068484,2023-08-10T20:21:08.484(UTC-07:00),-2100748,,4055390,-2679418,,5343251
1691724068515,2023-08-10T20:21:08.515(UTC-07:00),,5393388,4070697,,5370582,5370534
1691724068552,2023-08-10T20:21:08.552(UTC-07:00),-2120250,5394964,,-2714066,5405142,
1691724068583,2023-08-10T20:21:08.583(UTC-07:00),-2115013,5387298,4077554,-2714285,5405284,5405105
1691724068626,2023-08-10T20:21:08.626(UTC-07:00),-2115748,,4086332,-2717270,,5405248
1691724068657,2023-08-10T20:21:08.657(UTC-07:00),,5392314,4089556,,5408198,5408161
1691724068694,2023-08-10T20:21:08.694(UTC-07:00),-2107210,5395436,,-2712500,5403354,
1691724068726,2023-08-10T20:21:08.726(UTC-07:00),-2112101,5393330,4092626,-2721013,5411789,5403313
1691724068762,2023-08-10T20:21:08.762(UTC-07:00),-2113162,,4086063,-2728097,,5411754
1691724068792,2023-08-10T20:21:08.792(UTC-07:00),,5407188,4099125,,5418805,5418770
1691724068829,2023-08-10T20:21:08.829(UTC-07:00),-2116492,5413916,,-2720927,5411562,
1691724068860,2023-08-10T20:21:08.860(UTC-07:00),-2114616,5405959,4098721,-2716131,5406687,5411522
1691724068896,2023-08-10T20:21:08.896(UTC-07:00),-2123732,,4090608,-2721467,,5406649
1691724068927,2023-08-10T20:21:08.927(UTC-07:00),,5426312,4107568,,5411947,5411905
1691724068972,2023-08-10T20:21:08.972(UTC-07:00),-2103470,5416393,,-2696760,5387152,
1691724069002,2023-08-10T20:21:09.002(UTC-07:00),-2105558,5428855,4091124,-2696338,5386640,5387106
1691724069047,2023-08-10T20:21:09.047(UTC-07:00),-2114371,,4101004,-2695992,,5386593
1691724069077,2023-08-10T20:21:09.077(UTC-07:00),,5440321,4092003,,5386198,5386150
1691724069114,2023-08-10T20:21:09.114(UTC-07:00),-2094449,5443963,,-2681427,5371535,
1691724069145,2023-08-10T20:21:09.145(UTC-07:00),-2103699,5447534,4104924,-2683751,5373757,5371483
1691724069182,2023-08-10T20:21:09.182(UTC-07:00),-2101077,,4096624,-2671587,,5373704
1691724069212,2023-08-10T20:21:09.212(UTC-07:00),,5444785,4088534,,5361484,5361427
1691724069257,2023-08-10T20:21:09.257(UTC-07:00),-2090476,5442026,,-2654484,5344265,
1691724069287,2023-08-10T20:21:09.287(UTC-07:00),-2100437,5457906,4080496,-2660132,5349791,5344202
1691724069324,2023-08-10T20:21:09.324(UTC-07:00),-2099156,,4078321,-2649992,,5349728
1691724069362,2023-08-10T20:21:09.362(UTC-07:00),,5440581,4096857,,5339527,5339462
1691724069399,2023-08-10T20:21:09.399(UTC-07:00),-2094626,5460945,,-2653336,5342744,
1691724069430,2023-08-10T20:21:09.430(UTC-07:00),-2106461,5460385,4084517,-2693132,5382434,5342686
1691724069467,2023-08-10T20:21:09.467(UTC-07:00),-2106175,,4086190,-2713507,,5382395
1691724069497,2023-08-10T20:21:09.497(UTC-07:00),,5444772,4101188,,5402731,5402694
1691724069534,2023-08-10T20:21:09.534(UTC-07:00),-2110243,5442555,,-2719225,5408375,
1691724069565,2023-08-10T20:21:09.565(UTC-07:00),-2108575,5441028,4108801,-2731831,5420911,5408337
1691724069601,2023-08-10T20:21:09.601(UTC-07:00),-2114180,,4125798,-2732394,,5420879
1691724069632,2023-08-10T20:21:09.632(UTC-07:00),,5445288,4120400,,5421410,5421373
1691724069677,2023-08-10T20:21:09.677(UTC-07:00),-2115598,5450643,,-2727402,5416346,
1691724069707,2023-08-10T20:21:09.707(UTC-07:00),-2106902,5446863,4121263,-2715871,5404741,5416309
1691724069744,2023-08-10T20:21:09.744(UTC-07:00),-2112334,,4117294,-2716281,,5404702
1691724069775,2023-08-10T20:21:09.775(UTC-07:00),,5457737,4116613,,5405073,5405032
1691724069812,2023-08-10T20:21:09.812(UTC-07:00),-2109683,5463604,,-2708808,5397520,
1691724069842,2023-08-10T20:21:09.842(UTC-07:00),-2125134,5499119,4108473,-2736357,5424997,5397482
1691724069879,2023-08-10T20:21:09.879(UTC-07:00),-2108491,,4147596,-2707394,,5424955
1691724069910,2023-08-10T20:21:09.910(UTC-07:00),,5479366,4119938,,5395949,5395906
1691724069947,2023-08-10T20:21:09.947(UTC-07:00),-2119829,5482553,,-2709005,5397475,
1691724069977,2023-08-10T20:21:09.977(UTC-07:00),-2110337,5479769,4119668,-2697528,5385903,5397427
1691724070014,2023-08-10T20:21:10.014(UTC-07:00),-2101908,,4114172,-2681558,,5385854
1691724070045,2023-08-10T20:21:10.045(UTC-07:00),,5475022,4096476,,5369835,5369785
1691724070089,2023-08-10T20:21:10.089(UTC-07:00),-2108811,5475342,,-2689092,5377272,
1691724070120,2023-08-10T20:21:10.120(UTC-07:00),-2102777,5494396,4118428,-2684601,5372680,5377221
1691724070157,2023-08-10T20:21:10.157(UTC-07:00),-2105293,,4110017,-2687512,,5372627
1691724070187,2023-08-10T20:21:10.187(UTC-07:00),,5500358,4125885,,5375490,5375435
1691724070224,2023-08-10T20:21:10.224(UTC-07:00),-2095560,5487070,,-2659297,5347162,
1691724070255,2023-08-10T20:21:10.255(UTC-07:00),-2091308,5485896,4101446,-2652969,5340712,5347100
1691724070299,2023-08-10T20:21:10.299(UTC-07:00),-2093179,,4094397,-2650415,,5340651
1691724070330,2023-08-10T20:21:10.330(UTC-07:00),,5497514,4095720,,5338035,5337974
1691724070367,2023-08-10T20:21:10.367(UTC-07:00),-2083778,5481929,,-2673513,5361020,
1691724070404,2023-08-10T20:21:10.404(UTC-07:00),-2107552,5482851,4083122,-2712419,5399843,5360974
1691724070435,2023-08-10T20:21:10.435(UTC-07:00),-2108254,,4106108,-2723503,,5399807
1691724070472,2023-08-10T20:21:10.472(UTC-07:00),,5456502,4110665,,5410856,5410823
1691724070502,2023-08-10T20:21:10.502(UTC-07:00),-2117605,5470673,,-2733245,5420535,
1691724070539,2023-08-10T20:21:10.539(UTC-07:00),-2110281,5449119,4118959,-2725265,5412491,5420503
1691724070570,2023-08-10T20:21:10.570(UTC-07:00),-2105016,,4109509,-2720796,,5412457
1691724070607,2023-08-10T20:21:10.607(UTC-07:00),,5444980,4110087,,5407953,5407918
1691724070637,2023-08-10T20:21:10.637(UTC-07:00),-2114418,5450936,,-2723782,5410870,
1691724070674,2023-08-10T20:21:10.674(UTC-07:00),-2107977,5455927,4122978,-2722066,5409079,5410832
1691724070705,2023-08-10T20:21:10.705(UTC-07:00),-2120215,,4120094,-2734513,,5409043
1691724070750,2023-08-10T20:21:10.750(UTC-07:00),,5466041,4129263,,5421457,5421423
1691724070780,2023-08-10T20:21:10.780(UTC-07:00),-2106596,5468451,,-2712059,5398930,
1691724070816,2023-08-10T20:21:10.816(UTC-07:00),-2108350,5468626,4118348,-2705518,5392304,5398888
1691724070847,2023-08-10T20:21:10.847(UTC-07:00),-2089256,,4111937,-2686615,,5392259
1691724070884,2023-08-10T20:21:10.884(UTC-07:00),,5460458,4102121,,5373310,5373260
1691724070915,2023-08-10T20:21:10.915(UTC-07:00),-2095167,5463149,,-2689512,5376108,
1691724070952,2023-08-10T20:21:10.952(UTC-07:00),-2103001,5471155,4105114,-2680124,5366615,5376056
1691724070989,2023-08-10T20:21:10.989(UTC-07:00),-2097111,,4102806,-2678959,,5366563
1691724071020,2023-08-10T20:21:11.020(UTC-07:00),,5470658,4093620,,5365345,5365294
1691724071064,2023-08-10T20:21:11.064(UTC-07:00),-2093777,5481370,,-2686539,5372824,
1691724071095,2023-08-10T20:21:11.095(UTC-07:00),-2085576,5462017,4109068,-2664941,5351120,5372772
1691724071132,2023-08-10T20:21:11.132(UTC-07:00),-2096703,,4084564,-2669165,,5351064
1691724071162,2023-08-10T20:21:11.162(UTC-07:00),,5476048,4095419,,5355232,5355173
1691724071200,2023-08-10T20:21:11.200(UTC-07:00),-2089548,5465486,,-2661032,5346984,
1691724071244,2023-08-10T20:21:11.244(UTC-07:00),-2090027,5481828,4093956,-2659602,5345438,5346925
1691724071275,2023-08-10T20:21:11.275(UTC-07:00),-2095354,,4081754,-2684824,,5345381
1691724071311,2023-08-10T20:21:11.311(UTC-07:00),,5470951,4090943,,5370555,5370511
1691724071342,2023-08-10T20:21:11.342(UTC-07:00),-2104816,5471835,,-2724913,5410567,
1691724071387,2023-08-10T20:21:11.387(UTC-07:00),-2107257,5464330,4110853,-2736222,5421817,5410537
1691724071417,2023-08-10T20:21:11.417(UTC-07:00),-2106881,,4110706,-2741214,,5421788
1691724071455,2023-08-10T20:21:11.455(UTC-07:00),,5464776,4123510,,5426753,5426725
1691724071485,2023-08-10T20:21:11.485(UTC-07:00),-2106038,5456190,,-2745189,5430673,
1691724071522,2023-08-10T20:21:11.522(UTC-07:00),-2106094,5467509,4129949,-2739116,5424543,5430644
1691724071552,2023-08-10T20:21:11.552(UTC-07:00),-2105903,,4129646,-2728633,,5424509
1691724071589,2023-08-10T20:21:11.589(UTC-07:00),,5466689,4120706,,5413995,5413961
1691724071620,2023-08-10T20:21:11.620(UTC-07:00),-2111275,5473437,,-2730797,5416093,
1691724071656,2023-08-10T20:21:11.656(UTC-07:00),-2107989,5469152,4121241,-2728555,5413783,5416058
1691724071687,2023-08-10T20:21:11.687(UTC-07:00),-2115602,,4119215,-2736317,,5413754
1691724071724,2023-08-10T20:21:11.724(UTC-07:00),,5484315,4135301,,5421485,5421449
1691724071762,2023-08-10T20:21:11.762(UTC-07:00),-2101254,5477951,,-2719796,5404891,
1691724071807,2023-08-10T20:21:11.807(UTC-07:00),-2103733,5484881,4114374,-2717346,5402368,5404855
1691724071837,2023-08-10T20:21:11.837(UTC-07:00),-2098843,,4119406,-2710616,,5402327
1691724071882,2023-08-10T20:21:11.882(UTC-07:00),,5489554,4113580,,5395559,5395516
1691724071912,2023-08-10T20:21:11.912(UTC-07:00),-2099804,5493464,,-2701143,5386000,
1691724071949,2023-08-10T20:21:11.949(UTC-07:00),-2091985,5499673,4123421,-2687566,5372332,5385954
1691724071980,2023-08-10T20:21:11.980(UTC-07:00),-2081025,,4118814,-2667968,,5372282
1691724072017,2023-08-10T20:21:12.017(UTC-07:00),,5479822,4095832,,5352631,5352578
1691724072055,2023-08-10T20:21:12.055(UTC-07:00),-2081285,5493621,,-2667990,5352548,
1691724072092,2023-08-10T20:21:12.092(UTC-07:00),-2094343,5511874,4110620,-2675295,5359744,5352492
1691724072129,2023-08-10T20:21:12.129(UTC-07:00),-2098993,,4110962,-2672877,,5359691
1691724072160,2023-08-10T20:21:12.160(UTC-07:00),,5508403,4106844,,5357221,5357167
1691724072204,2023-08-10T20:21:12.204(UTC-07:00),-2097769,5496359,,-2678893,5363134,
1691724072242,2023-08-10T20:21:12.242(UTC-07:00),-2106864,5502762,4091477,-2721885,5406047,5363092
1691724072279,2023-08-10T20:21:12.279(UTC-07:00),-2101942,,4125912,-2728442,,5406013
1691724072317,2023-08-10T20:21:12.317(UTC-07:00),,5491157,4121498,,5412540,5412510
1691724072347,2023-08-10T20:21:12.347(UTC-07:00),-2108255,5488482,,-2735345,5419384,
1691724072384,2023-08-10T20:21:12.384(UTC-07:00),-2103742,5485796,4129582,-2729189,5413168,5419354
1691724072415,2023-08-10T20:21:12.415(UTC-07:00),-2108705,,4134211,-2734453,,5413134
1691724072452,2023-08-10T20:21:12.452(UTC-07:00),,5489815,4142601,,5418368,5418335
1691724072490,2023-08-10T20:21:12.490(UTC-07:00),-2117756,5500440,,-2737885,5421737,
1691724072527,2023-08-10T20:21:12.527(UTC-07:00),-2113375,5502109,4141729,-2729950,5413738,5421705
1691724072557,2023-08-10T20:21:12.557(UTC-07:00),-2113100,,4140357,-2726945,,5413704
1691724072602,2023-08-10T20:21:12.602(UTC-07:00),,5502070,4126078,,5410667,5410631
1691724072632,2023-08-10T20:21:12.632(UTC-07:00),-2102873,5488767,,-2712451,5396101,
1691724072669,2023-08-10T20:21:12.669(UTC-07:00),-2117496,5497087,4116637,-2724236,5407814,5396062
1691724072700,2023-08-10T20:21:12.700(UTC-07:00),-2106541,,4143535,-2701434,,5407770
1691724072744,2023-08-10T20:21:12.744(UTC-07:00),,5490422,4117855,,5384927,5384882
1691724072775,2023-08-10T20:21:12.775(UTC-07:00),-2092685,5481120,,-2682573,5365974,
1691724072812,2023-08-10T20:21:12.812(UTC-07:00),-2088995,5486515,4113275,-2676857,5360162,5365928
1691724072850,2023-08-10T20:21:12.850(UTC-07:00),-2091873,,4101312,-2675384,,5360111
1691724072887,2023-08-10T20:21:12.887(UTC-07:00),,5493593,4104245,,5358590,5358536
1691724072917,2023-08-10T20:21:12.917(UTC-07:00),-2087510,5497417,,-2671456,5354558,
1691724072954,2023-08-10T20:21:12.954(UTC-07:00),-2088996,5490645,4098317,-2667410,5350407,5354506
1691724072985,2023-08-10T20:21:12.985(UTC-07:00),-2082088,,4105558,-2655913,,5350355
1691724073021,2023-08-10T20:21:13.021(UTC-07:00),,5504094,4107047,,5338800,5338738
1691724073052,2023-08-10T20:21:13.052(UTC-07:00),-2077648,5496145,,-2647157,5329921,
1691724073089,2023-08-10T20:21:13.089(UTC-07:00),-2085210,5494304,4083721,-2672950,5355603,5329860
1691724073120,2023-08-10T20:21:13.120(UTC-07:00),-2109764,,4091804,-2722649,,5355563
1691724073164,2023-08-10T20:21:13.164(UTC-07:00),,5507676,4128676,,5405225,5405189
1691724073202,2023-08-10T20:21:13.202(UTC-07:00),-2103067,5493111,,-2723490,5405997,
1691724073247,2023-08-10T20:21:13.247(UTC-07:00),-2102842,5492464,4129723,-2725593,5408033,5405962
1691724073285,2023-08-10T20:21:13.285(UTC-07:00),-2114336,,4135927,-2729325,,5407999
1691724073322,2023-08-10T20:21:13.322(UTC-07:00),,5511497,4146721,,5411696,5411654
1691724073367,2023-08-10T20:21:13.367(UTC-07:00),-2101333,5482856,,-2704621,5386910,
1691724073397,2023-08-10T20:21:13.397(UTC-07:00),-2099026,5486893,4116311,-2706957,5389164,5386868
1691724073435,2023-08-10T20:21:13.435(UTC-07:00),-2103672,,4127074,-2701661,,5389122
1691724073479,2023-08-10T20:21:13.479(UTC-07:00),,5486202,4113015,,5383784,5383740
1691724073510,2023-08-10T20:21:13.510(UTC-07:00),-2109008,5488663,,-2709950,5391992,
1691724073547,2023-08-10T20:21:13.547(UTC-07:00),-2096792,5481437,4126521,-2690167,5372122,5391949
1691724073577,2023-08-10T20:21:13.577(UTC-07:00),-2100210,,4095724,-2691885,,5372076
1691724073614,2023-08-10T20:21:13.614(UTC-07:00),,5486929,4117291,,5373750,5373701
1691724073645,2023-08-10T20:21:13.645(UTC-07:00),-2097739,5489706,,-2679629,5361397,
1691724073681,2023-08-10T20:21:13.681(UTC-07:00),-2090192,5485025,4105105,-2677219,5358886,5361346
1691724073713,2023-08-10T20:21:13.713(UTC-07:00),-2092686,,4104576,-2671840,,5358835
1691724073749,2023-08-10T20:21:13.749(UTC-07:00),,5486332,4107584,,5353405,5353350
1691724073788,2023-08-10T20:21:13.788(UTC-07:00),-2093679,5486865,,-2662600,5344055,
1691724073824,2023-08-10T20:21:13.824(UTC-07:00),-2088058,5490785,4100983,-2660458,5341800,5343998
1691724073855,2023-08-10T20:21:13.855(UTC-07:00),-2080024,,4103296,-2650055,,5341741
1691724073892,2023-08-10T20:21:13.892(UTC-07:00),,5494447,4088692,,5331280,5331219
1691724073922,2023-08-10T20:21:13.922(UTC-07:00),-2088539,5493553,,-2654854,5335957,
1691724073959,2023-08-10T20:21:13.959(UTC-07:00),-2081280,5499746,4085465,-2673635,5354632,5335899
1691724073997,2023-08-10T20:21:13.997(UTC-07:00),-2099327,,4098012,-2700214,,5354587
1691724074034,2023-08-10T20:21:14.034(UTC-07:00),,5470662,4095108,,5381125,5381086
1691724074072,2023-08-10T20:21:14.072(UTC-07:00),-2097621,5476771,,-2705388,5386222,
1691724074110,2023-08-10T20:21:14.110(UTC-07:00),-2105507,5485180,4102083,-2717138,5397901,5386184
1691724074140,2023-08-10T20:21:14.140(UTC-07:00),-2102397,,4111027,-2710750,,5397863
1691724074177,2023-08-10T20:21:14.177(UTC-07:00),,5476040,4107756,,5391442,5391406
1691724074207,2023-08-10T20:21:14.207(UTC-07:00),-2101345,5499681,,-2720618,5401243,
1691724074246,2023-08-10T20:21:14.246(UTC-07:00),-2099748,5496634,4129219,-2715848,5396401,5401207
1691724074275,2023-08-10T20:21:14.275(UTC-07:00),-2099580,,4125905,-2701024,,5396364
1691724074311,2023-08-10T20:21:14.311(UTC-07:00),,5478527,4110629,,5381501,5381460
1691724074343,2023-08-10T20:21:14.343(UTC-07:00),-2096208,5491729,,-2701694,5382090,
1691724074387,2023-08-10T20:21:14.387(UTC-07:00),-2092994,5489334,4116257,-2694283,5374594,5382046
1691724074417,2023-08-10T20:21:14.417(UTC-07:00),-2108060,,4108957,-2709616,,5374551
1691724074454,2023-08-10T20:21:14.454(UTC-07:00),,5498400,4130120,,5389847,5389805
1691724074485,2023-08-10T20:21:14.485(UTC-07:00),-2093757,5490015,,-2685487,5365630,
1691724074522,2023-08-10T20:21:14.522(UTC-07:00),-2090176,5492516,4100983,-2683553,5363601,5365582
1691724074552,2023-08-10T20:21:14.552(UTC-07:00),-2099012,,4106486,-2682548,,5363554
1691724074597,2023-08-10T20:21:14.597(UTC-07:00),,5498204,4118902,,5362503,5362452
1691724074627,2023-08-10T20:21:14.627(UTC-07:00),-2089352,5488753,,-2671328,5351183,
1691724074664,2023-08-10T20:21:14.664(UTC-07:00),-2092974,5494316,4100640,-2671853,5351611,5351134
1691724074702,2023-08-10T20:21:14.702(UTC-07:00),-2091405,,4103288,-2674685,,5351560
1691724074739,2023-08-10T20:21:14.739(UTC-07:00),,5501691,4100957,,5354341,5354294
1691724074770,2023-08-10T20:21:14.770(UTC-07:00),-2098864,5486192,,-2700528,5380098,
1691724074814,2023-08-10T20:21:14.814(UTC-07:00),-2099591,5491446,4104401,-2715944,5395446,5380064
1691724074845,2023-08-10T20:21:14.845(UTC-07:00),-2100843,,4101929,-2725688,,5395415
1691724074889,2023-08-10T20:21:14.889(UTC-07:00),,5478175,4120506,,5405128,5405094
1691724074920,2023-08-10T20:21:14.920(UTC-07:00),-2106812,5469702,,-2731598,5410974,
1691724074957,2023-08-10T20:21:14.957(UTC-07:00),-2105067,5466745,4118049,-2725439,5404754,5410944
1691724074987,2023-08-10T20:21:14.987(UTC-07:00),-2089125,,4122368,-2714724,,5404720
1691724075024,2023-08-10T20:21:15.024(UTC-07:00),,5465589,4113059,,5393970,5393936
1691724075055,2023-08-10T20:21:15.055(UTC-07:00),-2097065,5468517,,-2715081,5394259,
1691724075092,2023-08-10T20:21:15.092(UTC-07:00),-2097750,5469857,4111788,-2707381,5386485,5394221
1691724075123,2023-08-10T20:21:15.123(UTC-07:00),-2093107,,4103264,-2707222,,5386446
1691724075159,2023-08-10T20:21:15.159(UTC-07:00),,5463537,4109298,,5386252,5386215
1691724075190,2023-08-10T20:21:15.190(UTC-07:00),-2103216,5478784,,-2718377,5397335,
1691724075234,2023-08-10T20:21:15.234(UTC-07:00),-2094575,5463902,4119739,-2701179,5380060,5397297
1691724075265,2023-08-10T20:21:15.265(UTC-07:00),-2107024,,4107435,-2708888,,5380020
1691724075301,2023-08-10T20:21:15.301(UTC-07:00),,5480408,4111492,,5387690,5387647
1691724075332,2023-08-10T20:21:15.332(UTC-07:00),-2107114,5476435,,-2699626,5378343,
1691724075369,2023-08-10T20:21:15.369(UTC-07:00),-2092317,5473800,4112185,-2684962,5363588,5378297
1691724075400,2023-08-10T20:21:15.400(UTC-07:00),-2096446,,4094372,-2684679,,5363543
1691724075437,2023-08-10T20:21:15.437(UTC-07:00),,5478892,4102200,,5363213,5363162
1691724075474,2023-08-10T20:21:15.474(UTC-07:00),-2099843,5465774,,-2674376,5352811,
1691724075505,2023-08-10T20:21:15.505(UTC-07:00),-2093755,5456896,4089757,-2680392,5358731,5352760
1691724075549,2023-08-10T20:21:15.549(UTC-07:00),-2106068,,4078875,-2722445,,5358690
1691724075580,2023-08-10T20:21:15.580(UTC-07:00),,5472060,4105117,,5400710,5400683
1691724075617,2023-08-10T20:21:15.617(UTC-07:00),-2112586,5469256,,-2742732,5420946,
1691724075647,2023-08-10T20:21:15.647(UTC-07:00),-2108800,5466829,4123111,-2748437,5426604,5420922
1691724075685,2023-08-10T20:21:15.685(UTC-07:00),-2097772,,4128461,-2737585,,5426579
1691724075715,2023-08-10T20:21:15.715(UTC-07:00),,5451294,4112553,,5415703,5415675
1691724075752,2023-08-10T20:21:15.752(UTC-07:00),-2113100,5459922,,-2740668,5418734,
1691724075782,2023-08-10T20:21:15.782(UTC-07:00),-2101934,5470817,4126397,-2737080,5415089,5418704
1691724075819,2023-08-10T20:21:15.819(UTC-07:00),-2101189,,4120650,-2734501,,5415064
1691724075858,2023-08-10T20:21:15.858(UTC-07:00),,5473114,4121628,,5412459,5412431
1691724075895,2023-08-10T20:21:15.895(UTC-07:00),-2095170,5479444,,-2727899,5405798,
1691724075925,2023-08-10T20:21:15.925(UTC-07:00),-2108025,5476930,4120160,-2727625,5405463,5405767
1691724075961,2023-08-10T20:21:15.961(UTC-07:00),-2104025,,4122711,-2722938,,5405430
1691724075993,2023-08-10T20:21:15.993(UTC-07:00),,5474517,4126618,,5400713,5400679
1691724076029,2023-08-10T20:21:16.029(UTC-07:00),-2099988,5469793,,-2706319,5384022,
1691724076060,2023-08-10T20:21:16.060(UTC-07:00),-2096299,5480851,4113083,-2696007,5373629,5383983
1691724076096,2023-08-10T20:21:16.096(UTC-07:00),-2098089,,4107640,-2701188,,5373585
1691724076127,2023-08-10T20:21:16.127(UTC-07:00),,5469170,4115412,,5378726,5378680
1691724076164,2023-08-10T20:21:16.164(UTC-07:00),-2101760,5477067,,-2691619,5369065,
1691724076195,2023-08-10T20:21:16.195(UTC-07:00),-2098090,5469356,4120142,-2681694,5359048,5369019
1691724076232,2023-08-10T20:21:16.232(UTC-07:00),-2095647,,4103322,-2680175,,5358999
1691724076262,2023-08-10T20:21:16.262(UTC-07:00),,5479088,4099459,,5357433,5357385
1691724076299,2023-08-10T20:21:16.299(UTC-07:00),-2086771,5479227,,-2677450,5354614,
1691724076330,2023-08-10T20:21:16.330(UTC-07:00),-2089876,5465556,4096036,-2694612,5371687,5354568
1691724076367,2023-08-10T20:21:16.367(UTC-07:00),-2104604,,4091002,-2734246,,5371653
1691724076398,2023-08-10T20:21:16.398(UTC-07:00),,5476599,4133369,,5411260,5411234
1691724076434,2023-08-10T20:21:16.434(UTC-07:00),-2102841,5477928,,-2735422,5412385,
1691724076472,2023-08-10T20:21:16.472(UTC-07:00),-2102829,5458003,4121051,-2732486,5409394,5412355
1691724076510,2023-08-10T20:21:16.510(UTC-07:00),-2097355,,4117836,-2727159,,5409366
1691724076540,2023-08-10T20:21:16.540(UTC-07:00),,5458544,4118652,,5404010,5403976
1691724076585,2023-08-10T20:21:16.585(UTC-07:00),-2105039,5469548,,-2725884,5402670,
1691724076615,2023-08-10T20:21:16.615(UTC-07:00),-2100467,5462305,4125808,-2725576,5402299,5402636
1691724076651,2023-08-10T20:21:16.651(UTC-07:00),-2096789,,4120434,-2718074,,5402265
1691724076682,2023-08-10T20:21:16.682(UTC-07:00),,5468784,4115753,,5394731,5394698
1691724076719,2023-08-10T20:21:16.719(UTC-07:00),-2096831,5463872,,-2713087,5389677,
1691724076750,2023-08-10T20:21:16.750(UTC-07:00),-2094138,5451657,4119374,-2696332,5372845,5389638
1691724076787,2023-08-10T20:21:16.787(UTC-07:00),-2087576,,4112597,-2685855,,5372806
1691724076825,2023-08-10T20:21:16.825(UTC-07:00),,5445297,4098224,,5362285,5362236
1691724076855,2023-08-10T20:21:16.855(UTC-07:00),-2086703,5452223,,-2676708,5353042,
1691724076892,2023-08-10T20:21:16.892(UTC-07:00),-2092552,5458735,4092675,-2681473,5357711,5352992
1691724076922,2023-08-10T20:21:16.922(UTC-07:00),-2087665,,4104255,-2666815,,5357662
1691724076959,2023-08-10T20:21:16.959(UTC-07:00),,5453273,4089940,,5342955,5342906
1691724076997,2023-08-10T20:21:16.997(UTC-07:00),-2088988,5479572,,-2676718,5352760,
1691724077035,2023-08-10T20:21:17.035(UTC-07:00),-2085302,5474205,4110446,-2660135,5336071,5352709
1691724077065,2023-08-10T20:21:17.065(UTC-07:00),-2082298,,4099994,-2654251,,5336012
1691724077102,2023-08-10T20:21:17.102(UTC-07:00),,5461130,4104387,,5330073,5330014
1691724077132,2023-08-10T20:21:17.132(UTC-07:00),-2090515,5468927,,-2649819,5325526,
1691724077169,2023-08-10T20:21:17.169(UTC-07:00),-2072288,5457142,4099388,-2640716,5316301,5325464
1691724077200,2023-08-10T20:21:17.200(UTC-07:00),-2095030,,4063439,-2686385,,5316251
1691724077245,2023-08-10T20:21:17.245(UTC-07:00),,5472170,4088416,,5361876,5361836
1691724077275,2023-08-10T20:21:17.275(UTC-07:00),-2097568,5465669,,-2719390,5394808,
1691724077319,2023-08-10T20:21:17.319(UTC-07:00),-2107161,5464344,4121772,-2721330,5396688,5394777
1691724077350,2023-08-10T20:21:17.350(UTC-07:00),-2107731,,4117056,-2740769,,5396659
1691724077387,2023-08-10T20:21:17.387(UTC-07:00),,5480333,4126735,,5416073,5416043
1691724077425,2023-08-10T20:21:17.425(UTC-07:00),-2101404,5467005,,-2727596,5402842,
1691724077462,2023-08-10T20:21:17.462(UTC-07:00),-2110172,5482127,4123205,-2730426,5405614,5402811
1691724077493,2023-08-10T20:21:17.493(UTC-07:00),-2105631,,4134250,-2728282,,5405580
1691724077529,2023-08-10T20:21:17.529(UTC-07:00),,5476825,4123228,,5403406,5403375
1691724077560,2023-08-10T20:21:17.560(UTC-07:00),-2102722,5469332,,-2723052,5398115,
1691724077597,2023-08-10T20:21:17.597(UTC-07:00),-2115821,5503039,4121404,-2742339,5417344,5398083
1691724077627,2023-08-10T20:21:17.627(UTC-07:00),-2098809,,4144374,-2706485,,5417311
1691724077665,2023-08-10T20:21:17.665(UTC-07:00),,5483413,4111610,,5381420,5381383
1691724077695,2023-08-10T20:21:17.695(UTC-07:00),-2103305,5482551,,-2711378,5386240,
1691724077732,2023-08-10T20:21:17.732(UTC-07:00),-2097488,5484532,4121853,-2706940,5381728,5386203
1691724077770,2023-08-10T20:21:17.770(UTC-07:00),-2094823,,4120914,-2695703,,5381690
1691724077807,2023-08-10T20:21:17.807(UTC-07:00),,5483056,4120876,,5370413,5370369
1691724077837,2023-08-10T20:21:17.837(UTC-07:00),-2093680,5490392,,-2696768,5371394,
1691724077874,2023-08-10T20:21:17.874(UTC-07:00),-2098812,5484981,4121107,-2691952,5366496,5371353
1691724077905,2023-08-10T20:21:17.905(UTC-07:00),-2093382,,4111834,-2677874,,5366452
1691724077942,2023-08-10T20:21:17.942(UTC-07:00),,5488006,4098301,,5352330,5352286
1691724077987,2023-08-10T20:21:17.987(UTC-07:00),-2083262,5489868,,-2672766,5347130,
1691724078017,2023-08-10T20:21:18.017(UTC-07:00),-2087149,5491764,4106331,-2666146,5340413,5347081
1691724078062,2023-08-10T20:21:18.062(UTC-07:00),-2074888,,4103447,-2648816,,5340357
1691724078093,2023-08-10T20:21:18.093(UTC-07:00),,5482412,4082299,,5322973,5322916
1691724078130,2023-08-10T20:21:18.130(UTC-07:00),-2086460,5472865,,-2653619,5327665,
1691724078160,2023-08-10T20:21:18.160(UTC-07:00),-2099949,5491931,4082811,-2693836,5367790,5327614
1691724078196,2023-08-10T20:21:18.196(UTC-07:00),-2091142,,4107334,-2718518,,5367753
1691724078227,2023-08-10T20:21:18.227(UTC-07:00),,5495418,4115362,,5392404,5392375
1691724078265,2023-08-10T20:21:18.265(UTC-07:00),-2107034,5496446,,-2747098,5420934,
1691724078302,2023-08-10T20:21:18.302(UTC-07:00),-2112773,5500019,4131402,-2764709,5438511,5420915
1691724078340,2023-08-10T20:21:18.340(UTC-07:00),-2113587,,4142620,-2774411,,5438495
1691724078385,2023-08-10T20:21:18.385(UTC-07:00),,5507285,4158813,,5448186,5448171
1691724078422,2023-08-10T20:21:18.422(UTC-07:00),-2120131,5495847,,-2768931,5442677,
1691724078460,2023-08-10T20:21:18.460(UTC-07:00),-2114291,5507524,4156403,-2763070,5436785,5442662
1691724078497,2023-08-10T20:21:18.497(UTC-07:00),-2109152,,4154904,-2760169,,5436766
